timestamp,ecg_waveform
1630678967002,2066
1630678967006,2062
1630678967010,2059
1630678967014,2058
1630678967018,2058
1630678967022,2058
1630678967026,2057
1630678967030,2057
1630678967034,2056
1630678967038,2056
1630678967042,2056
1630678967046,2056
1630678967050,2056
1630678967054,2057
1630678967058,2057
1630678967062,2058
1630678967066,2059
1630678967070,2059
1630678967074,2059
1630678967078,2059
1630678967082,2060
1630678967086,2061
1630678967090,2062
1630678967094,2063
1630678967098,2064
1630678967102,2066
1630678967106,2067
1630678967110,2068
1630678967114,2068
1630678967118,2069
1630678967122,2071
1630678967126,2072
1630678967130,2074
1630678967134,2077
1630678967138,2079
1630678967142,2080
1630678967146,2081
1630678967150,2082
1630678967154,2082
1630678967158,2082
1630678967162,2082
1630678967166,2082
1630678967170,2082
1630678967174,2081
1630678967178,2080
1630678967182,2079
1630678967186,2077
1630678967190,2075
1630678967194,2072
1630678967198,2069
1630678967202,2066
1630678967206,2063
1630678967210,2060
1630678967214,2059
1630678967218,2057
1630678967222,2056
1630678967226,2055
1630678967230,2054
1630678967234,2053
1630678967238,2052
1630678967242,2052
1630678967246,2051
1630678967250,2051
1630678967254,2051
1630678967258,2051
1630678967262,2052
1630678967266,2052
1630678967270,2052
1630678967274,2052
1630678967278,2052
1630678967282,2051
1630678967286,2051
1630678967290,2051
1630678967294,2051
1630678967298,2051
1630678967302,2052
1630678967306,2052
1630678967310,2052
1630678967314,2052
1630678967318,2051
1630678967322,2050
1630678967326,2050
1630678967330,2050
1630678967334,2050
1630678967338,2050
1630678967342,2051
1630678967346,2051
1630678967350,2051
1630678967354,2050
1630678967358,2050
1630678967362,2049
1630678967366,2048
1630678967370,2048
1630678967374,2048
1630678967378,2048
1630678967382,2048
1630678967386,2048
1630678967390,2048
1630678967394,2048
1630678967398,2048
1630678967402,2049
1630678967406,2049
1630678967410,2049
1630678967414,2049
1630678967418,2049
1630678967422,2049
1630678967426,2049
1630678967430,2049
1630678967434,2049
1630678967438,2048
1630678967442,2048
1630678967446,2048
1630678967450,2048
1630678967454,2048
1630678967458,2048
1630678967462,2048
1630678967466,2048
1630678967470,2048
1630678967474,2048
1630678967478,2047
1630678967482,2046
1630678967486,2046
1630678967490,2046
1630678967494,2046
1630678967498,2046
1630678967502,2047
1630678967506,2047
1630678967510,2047
1630678967514,2046
1630678967518,2045
1630678967522,2043
1630678967526,2042
1630678967530,2042
1630678967534,2043
1630678967538,2044
1630678967542,2045
1630678967546,2047
1630678967550,2048
1630678967554,2048
1630678967558,2049
1630678967562,2049
1630678967566,2049
1630678967570,2048
1630678967574,2047
1630678967578,2046
1630678967582,2045
1630678967586,2043
1630678967590,2042
1630678967594,2041
1630678967598,2041
1630678967602,2043
1630678967606,2044
1630678967610,2044
1630678967614,2041
1630678967618,2034
1630678967622,2026
1630678967626,2019
1630678967630,2018
1630678967634,2028
1630678967638,2049
1630678967642,2080
1630678967646,2115
1630678967650,2142
1630678967654,2153
1630678967658,2143
1630678967662,2119
1630678967666,2089
1630678967670,2064
1630678967674,2049
1630678967678,2044
1630678967682,2043
1630678967686,2042
1630678967690,2041
1630678967694,2039
1630678967698,2038
1630678967702,2038
1630678967706,2039
1630678967710,2039
1630678967714,2038
1630678967718,2037
1630678967722,2036
1630678967726,2036
1630678967730,2036
1630678967734,2037
1630678967738,2039
1630678967742,2039
1630678967746,2040
1630678967750,2041
1630678967754,2041
1630678967758,2042
1630678967762,2043
1630678967766,2043
1630678967770,2044
1630678967774,2045
1630678967778,2046
1630678967782,2048
1630678967786,2049
1630678967790,2050
1630678967794,2052
1630678967798,2053
1630678967802,2054
1630678967806,2055
1630678967810,2057
1630678967814,2059
1630678967818,2062
1630678967822,2064
1630678967826,2066
1630678967830,2067
1630678967834,2068
1630678967838,2069
1630678967842,2068
1630678967846,2067
1630678967850,2066
1630678967854,2066
1630678967858,2065
1630678967862,2064
1630678967866,2063
1630678967870,2061
1630678967874,2057
1630678967878,2053
1630678967882,2049
1630678967886,2046
1630678967890,2044
1630678967894,2042
1630678967898,2041
1630678967902,2040
1630678967906,2038
1630678967910,2037
1630678967914,2036
1630678967918,2035
1630678967922,2034
1630678967926,2033
1630678967930,2033
1630678967934,2033
1630678967938,2034
1630678967942,2034
1630678967946,2034
1630678967950,2034
1630678967954,2034
1630678967958,2034
1630678967962,2035
1630678967966,2035
1630678967970,2035
1630678967974,2035
1630678967978,2036
1630678967982,2036
1630678967986,2036
1630678967990,2036
1630678967994,2037
1630678967998,2037
1630678968002,2037
1630678968006,2037
1630678968010,2038
1630678968014,2038
1630678968018,2038
1630678968022,2038
1630678968026,2037
1630678968030,2037
1630678968034,2038
1630678968038,2038
1630678968042,2038
1630678968046,2038
1630678968050,2038
1630678968054,2038
1630678968058,2039
1630678968062,2040
1630678968066,2040
1630678968070,2040
1630678968074,2040
1630678968078,2039
1630678968082,2039
1630678968086,2039
1630678968090,2039
1630678968094,2039
1630678968098,2040
1630678968102,2040
1630678968106,2040
1630678968110,2040
1630678968114,2040
1630678968118,2040
1630678968122,2040
1630678968126,2040
1630678968130,2040
1630678968134,2040
1630678968138,2040
1630678968142,2040
1630678968146,2041
1630678968150,2041
1630678968154,2040
1630678968158,2039
1630678968162,2038
1630678968166,2037
1630678968170,2037
1630678968174,2038
1630678968178,2040
1630678968182,2042
1630678968186,2044
1630678968190,2046
1630678968194,2048
1630678968198,2048
1630678968202,2048
1630678968206,2047
1630678968210,2046
1630678968214,2044
1630678968218,2043
1630678968222,2043
1630678968226,2043
1630678968230,2042
1630678968234,2043
1630678968238,2043
1630678968242,2044
1630678968246,2044
1630678968250,2041
1630678968254,2034
1630678968258,2025
1630678968262,2018
1630678968266,2016
1630678968270,2027
1630678968274,2049
1630678968278,2083
1630678968282,2121
1630678968286,2151
1630678968290,2164
1630678968294,2155
1630678968298,2129
1630678968302,2098
1630678968306,2071
1630678968310,2055
1630678968314,2049
1630678968318,2048
1630678968322,2047
1630678968326,2045
1630678968330,2043
1630678968334,2040
1630678968338,2040
1630678968342,2041
1630678968346,2040
1630678968350,2040
1630678968354,2039
1630678968358,2039
1630678968362,2039
1630678968366,2039
1630678968370,2040
1630678968374,2041
1630678968378,2042
1630678968382,2043
1630678968386,2044
1630678968390,2044
1630678968394,2044
1630678968398,2044
1630678968402,2044
1630678968406,2045
1630678968410,2046
1630678968414,2048
1630678968418,2049
1630678968422,2050
1630678968426,2052
1630678968430,2053
1630678968434,2055
1630678968438,2056
1630678968442,2057
1630678968446,2059
1630678968450,2061
1630678968454,2063
1630678968458,2066
1630678968462,2068
1630678968466,2070
1630678968470,2071
1630678968474,2072
1630678968478,2072
1630678968482,2071
1630678968486,2071
1630678968490,2070
1630678968494,2069
1630678968498,2067
1630678968502,2064
1630678968506,2061
1630678968510,2057
1630678968514,2053
1630678968518,2050
1630678968522,2048
1630678968526,2045
1630678968530,2043
1630678968534,2041
1630678968538,2040
1630678968542,2039
1630678968546,2039
1630678968550,2038
1630678968554,2037
1630678968558,2036
1630678968562,2036
1630678968566,2036
1630678968570,2036
1630678968574,2036
1630678968578,2036
1630678968582,2036
1630678968586,2037
1630678968590,2037
1630678968594,2036
1630678968598,2036
1630678968602,2035
1630678968606,2035
1630678968610,2035
1630678968614,2036
1630678968618,2036
1630678968622,2037
1630678968626,2037
1630678968630,2037
1630678968634,2036
1630678968638,2036
1630678968642,2036
1630678968646,2036
1630678968650,2037
1630678968654,2037
1630678968658,2038
1630678968662,2038
1630678968666,2038
1630678968670,2038
1630678968674,2038
1630678968678,2038
1630678968682,2039
1630678968686,2039
1630678968690,2039
1630678968694,2039
1630678968698,2039
1630678968702,2040
1630678968706,2040
1630678968710,2040
1630678968714,2040
1630678968718,2040
1630678968722,2040
1630678968726,2040
1630678968730,2040
1630678968734,2040
1630678968738,2041
1630678968742,2041
1630678968746,2042
1630678968750,2042
1630678968754,2041
1630678968758,2041
1630678968762,2040
1630678968766,2040
1630678968770,2040
1630678968774,2040
1630678968778,2040
1630678968782,2039
1630678968786,2040
1630678968790,2040
1630678968794,2041
1630678968798,2043
1630678968802,2045
1630678968806,2047
1630678968810,2048
1630678968814,2049
1630678968818,2049
1630678968822,2049
1630678968826,2048
1630678968830,2047
1630678968834,2045
1630678968838,2044
1630678968842,2043
1630678968846,2043
1630678968850,2043
1630678968854,2044
1630678968858,2046
1630678968862,2048
1630678968866,2047
1630678968870,2042
1630678968874,2033
1630678968878,2022
1630678968882,2015
1630678968886,2016
1630678968890,2031
1630678968894,2058
1630678968898,2096
1630678968902,2135
1630678968906,2164
1630678968910,2175
1630678968914,2166
1630678968918,2141
1630678968922,2111
1630678968926,2085
1630678968930,2068
1630678968934,2059
1630678968938,2056
1630678968942,2053
1630678968946,2050
1630678968950,2047
1630678968954,2046
1630678968958,2045
1630678968962,2044
1630678968966,2044
1630678968970,2044
1630678968974,2044
1630678968978,2045
1630678968982,2045
1630678968986,2045
1630678968990,2046
1630678968994,2046
1630678968998,2047
1630678969002,2047
1630678969006,2047
1630678969010,2048
1630678969014,2048
1630678969018,2049
1630678969022,2050
1630678969026,2051
1630678969030,2052
1630678969034,2052
1630678969038,2053
1630678969042,2054
1630678969046,2056
1630678969050,2057
1630678969054,2059
1630678969058,2061
1630678969062,2064
1630678969066,2066
1630678969070,2068
1630678969074,2070
1630678969078,2071
1630678969082,2073
1630678969086,2074
1630678969090,2075
1630678969094,2076
1630678969098,2077
1630678969102,2077
1630678969106,2077
1630678969110,2075
1630678969114,2073
1630678969118,2071
1630678969122,2068
1630678969126,2065
1630678969130,2062
1630678969134,2059
1630678969138,2056
1630678969142,2054
1630678969146,2052
1630678969150,2049
1630678969154,2048
1630678969158,2046
1630678969162,2045
1630678969166,2044
1630678969170,2043
1630678969174,2043
1630678969178,2043
1630678969182,2043
1630678969186,2042
1630678969190,2042
1630678969194,2042
1630678969198,2042
1630678969202,2042
1630678969206,2042
1630678969210,2042
1630678969214,2042
1630678969218,2043
1630678969222,2043
1630678969226,2043
1630678969230,2043
1630678969234,2043
1630678969238,2042
1630678969242,2042
1630678969246,2042
1630678969250,2042
1630678969254,2042
1630678969258,2043
1630678969262,2043
1630678969266,2044
1630678969270,2044
1630678969274,2044
1630678969278,2043
1630678969282,2043
1630678969286,2043
1630678969290,2043
1630678969294,2044
1630678969298,2045
1630678969302,2045
1630678969306,2046
1630678969310,2045
1630678969314,2045
1630678969318,2044
1630678969322,2044
1630678969326,2044
1630678969330,2045
1630678969334,2046
1630678969338,2046
1630678969342,2046
1630678969346,2046
1630678969350,2046
1630678969354,2045
1630678969358,2045
1630678969362,2045
1630678969366,2046
1630678969370,2046
1630678969374,2046
1630678969378,2046
1630678969382,2047
1630678969386,2046
1630678969390,2046
1630678969394,2046
1630678969398,2045
1630678969402,2045
1630678969406,2044
1630678969410,2044
1630678969414,2045
1630678969418,2046
1630678969422,2048
1630678969426,2049
1630678969430,2051
1630678969434,2052
1630678969438,2052
1630678969442,2053
1630678969446,2054
1630678969450,2054
1630678969454,2053
1630678969458,2052
1630678969462,2050
1630678969466,2049
1630678969470,2049
1630678969474,2048
1630678969478,2048
1630678969482,2048
1630678969486,2050
1630678969490,2051
1630678969494,2049
1630678969498,2045
1630678969502,2036
1630678969506,2026
1630678969510,2020
1630678969514,2024
1630678969518,2040
1630678969522,2067
1630678969526,2105
1630678969530,2142
1630678969534,2170
1630678969538,2180
1630678969542,2172
1630678969546,2149
1630678969550,2120
1630678969554,2094
1630678969558,2075
1630678969562,2064
1630678969566,2057
1630678969570,2053
1630678969574,2050
1630678969578,2048
1630678969582,2047
1630678969586,2047
1630678969590,2046
1630678969594,2045
1630678969598,2044
1630678969602,2044
1630678969606,2044
1630678969610,2044
1630678969614,2045
1630678969618,2046
1630678969622,2047
1630678969626,2047
1630678969630,2048
1630678969634,2048
1630678969638,2048
1630678969642,2048
1630678969646,2048
1630678969650,2049
1630678969654,2050
1630678969658,2051
1630678969662,2053
1630678969666,2054
1630678969670,2055
1630678969674,2056
1630678969678,2057
1630678969682,2058
1630678969686,2060
1630678969690,2062
1630678969694,2064
1630678969698,2067
1630678969702,2069
1630678969706,2071
1630678969710,2072
1630678969714,2073
1630678969718,2074
1630678969722,2074
1630678969726,2074
1630678969730,2074
1630678969734,2074
1630678969738,2073
1630678969742,2072
1630678969746,2070
1630678969750,2067
1630678969754,2063
1630678969758,2059
1630678969762,2055
1630678969766,2052
1630678969770,2050
1630678969774,2048
1630678969778,2048
1630678969782,2047
1630678969786,2045
1630678969790,2044
1630678969794,2043
1630678969798,2042
1630678969802,2041
1630678969806,2041
1630678969810,2040
1630678969814,2040
1630678969818,2040
1630678969822,2041
1630678969826,2041
1630678969830,2042
1630678969834,2042
1630678969838,2042
1630678969842,2042
1630678969846,2042
1630678969850,2042
1630678969854,2042
1630678969858,2043
1630678969862,2043
1630678969866,2043
1630678969870,2043
1630678969874,2042
1630678969878,2042
1630678969882,2041
1630678969886,2041
1630678969890,2042
1630678969894,2042
1630678969898,2043
1630678969902,2043
1630678969906,2043
1630678969910,2043
1630678969914,2042
1630678969918,2041
1630678969922,2041
1630678969926,2041
1630678969930,2041
1630678969934,2042
1630678969938,2042
1630678969942,2043
1630678969946,2043
1630678969950,2043
1630678969954,2043
1630678969958,2043
1630678969962,2043
1630678969966,2042
1630678969970,2042
1630678969974,2043
1630678969978,2043
1630678969982,2043
1630678969986,2043
1630678969990,2043
1630678969994,2044
1630678969998,2043
1630678970002,2043
1630678970006,2043
1630678970010,2043
1630678970014,2042
1630678970018,2043
1630678970022,2044
1630678970026,2044
1630678970030,2044
1630678970034,2044
1630678970038,2044
1630678970042,2043
1630678970046,2043
1630678970050,2043
1630678970054,2043
1630678970058,2043
1630678970062,2042
1630678970066,2042
1630678970070,2041
1630678970074,2041
1630678970078,2042
1630678970082,2043
1630678970086,2045
1630678970090,2047
1630678970094,2048
1630678970098,2050
1630678970102,2051
1630678970106,2051
1630678970110,2050
1630678970114,2048
1630678970118,2047
1630678970122,2046
1630678970126,2045
1630678970130,2044
1630678970134,2044
1630678970138,2044
1630678970142,2045
1630678970146,2046
1630678970150,2047
1630678970154,2045
1630678970158,2039
1630678970162,2030
1630678970166,2021
1630678970170,2016
1630678970174,2022
1630678970178,2040
1630678970182,2068
1630678970186,2105
1630678970190,2139
1630678970194,2161
1630678970198,2164
1630678970202,2149
1630678970206,2122
1630678970210,2094
1630678970214,2073
1630678970218,2060
1630678970222,2054
1630678970226,2050
1630678970230,2047
1630678970234,2044
1630678970238,2042
1630678970242,2041
1630678970246,2042
1630678970250,2041
1630678970254,2041
1630678970258,2040
1630678970262,2041
1630678970266,2041
1630678970270,2042
1630678970274,2043
1630678970278,2043
1630678970282,2044
1630678970286,2045
1630678970290,2045
1630678970294,2046
1630678970298,2047
1630678970302,2048
1630678970306,2048
1630678970310,2048
1630678970314,2049
1630678970318,2050
1630678970322,2050
1630678970326,2051
1630678970330,2052
1630678970334,2053
1630678970338,2055
1630678970342,2057
1630678970346,2058
1630678970350,2060
1630678970354,2062
1630678970358,2065
1630678970362,2067
1630678970366,2069
1630678970370,2070
1630678970374,2072
1630678970378,2073
1630678970382,2073
1630678970386,2073
1630678970390,2072
1630678970394,2071
1630678970398,2070
1630678970402,2068
1630678970406,2065
1630678970410,2063
1630678970414,2060
1630678970418,2057
1630678970422,2054
1630678970426,2050
1630678970430,2048
1630678970434,2045
1630678970438,2043
1630678970442,2041
1630678970446,2040
1630678970450,2039
1630678970454,2039
1630678970458,2038
1630678970462,2037
1630678970466,2036
1630678970470,2036
1630678970474,2036
1630678970478,2036
1630678970482,2036
1630678970486,2036
1630678970490,2036
1630678970494,2036
1630678970498,2036
1630678970502,2037
1630678970506,2038
1630678970510,2038
1630678970514,2038
1630678970518,2038
1630678970522,2038
1630678970526,2038
1630678970530,2038
1630678970534,2038
1630678970538,2038
1630678970542,2038
1630678970546,2037
1630678970550,2037
1630678970554,2037
1630678970558,2037
1630678970562,2037
1630678970566,2037
1630678970570,2037
1630678970574,2037
1630678970578,2038
1630678970582,2039
1630678970586,2040
1630678970590,2039
1630678970594,2039
1630678970598,2039
1630678970602,2039
1630678970606,2039
1630678970610,2040
1630678970614,2040
1630678970618,2040
1630678970622,2039
1630678970626,2039
1630678970630,2038
1630678970634,2038
1630678970638,2038
1630678970642,2038
1630678970646,2039
1630678970650,2039
1630678970654,2040
1630678970658,2041
1630678970662,2041
1630678970666,2041
1630678970670,2040
1630678970674,2040
1630678970678,2040
1630678970682,2040
1630678970686,2041
1630678970690,2041
1630678970694,2041
1630678970698,2041
1630678970702,2042
1630678970706,2042
1630678970710,2042
1630678970714,2042
1630678970718,2042
1630678970722,2041
1630678970726,2040
1630678970730,2040
1630678970734,2039
1630678970738,2040
1630678970742,2039
1630678970746,2040
1630678970750,2040
1630678970754,2041
1630678970758,2042
1630678970762,2044
1630678970766,2045
1630678970770,2047
1630678970774,2048
1630678970778,2049
1630678970782,2049
1630678970786,2050
1630678970790,2049
1630678970794,2048
1630678970798,2047
1630678970802,2046
1630678970806,2045
1630678970810,2044
1630678970814,2044
1630678970818,2045
1630678970822,2048
1630678970826,2048
1630678970830,2047
1630678970834,2039
1630678970838,2028
1630678970842,2018
1630678970846,2014
1630678970850,2023
1630678970854,2046
1630678970858,2081
1630678970862,2124
1630678970866,2159
1630678970870,2177
1630678970874,2172
1630678970878,2147
1630678970882,2114
1630678970886,2084
1630678970890,2065
1630678970894,2057
1630678970898,2055
1630678970902,2054
1630678970906,2051
1630678970910,2048
1630678970914,2046
1630678970918,2044
1630678970922,2044
1630678970926,2044
1630678970930,2043
1630678970934,2044
1630678970938,2044
1630678970942,2044
1630678970946,2045
1630678970950,2045
1630678970954,2045
1630678970958,2046
1630678970962,2046
1630678970966,2046
1630678970970,2047
1630678970974,2048
1630678970978,2048
1630678970982,2049
1630678970986,2050
1630678970990,2051
1630678970994,2052
1630678970998,2053
1630678971002,2054
1630678971006,2056
1630678971010,2057
1630678971014,2059
1630678971018,2061
1630678971022,2064
1630678971026,2066
1630678971030,2068
1630678971034,2069
1630678971038,2071
1630678971042,2072
1630678971046,2074
1630678971050,2075
1630678971054,2076
1630678971058,2076
1630678971062,2076
1630678971066,2076
1630678971070,2076
1630678971074,2074
1630678971078,2072
1630678971082,2070
1630678971086,2066
1630678971090,2062
1630678971094,2058
1630678971098,2054
1630678971102,2051
1630678971106,2049
1630678971110,2047
1630678971114,2044
1630678971118,2042
1630678971122,2041
1630678971126,2040
1630678971130,2040
1630678971134,2041
1630678971138,2041
1630678971142,2041
1630678971146,2040
1630678971150,2039
1630678971154,2039
1630678971158,2039
1630678971162,2039
1630678971166,2039
1630678971170,2039
1630678971174,2039
1630678971178,2039
1630678971182,2039
1630678971186,2039
1630678971190,2039
1630678971194,2039
1630678971198,2039
1630678971202,2039
1630678971206,2039
1630678971210,2039
1630678971214,2040
1630678971218,2040
1630678971222,2041
1630678971226,2041
1630678971230,2042
1630678971234,2042
1630678971238,2041
1630678971242,2041
1630678971246,2041
1630678971250,2041
1630678971254,2042
1630678971258,2043
1630678971262,2044
1630678971266,2044
1630678971270,2044
1630678971274,2044
1630678971278,2043
1630678971282,2043
1630678971286,2043
1630678971290,2043
1630678971294,2044
1630678971298,2044
1630678971302,2045
1630678971306,2045
1630678971310,2045
1630678971314,2045
1630678971318,2045
1630678971322,2045
1630678971326,2044
1630678971330,2045
1630678971334,2045
1630678971338,2046
1630678971342,2046
1630678971346,2046
1630678971350,2046
1630678971354,2046
1630678971358,2045
1630678971362,2045
1630678971366,2045
1630678971370,2046
1630678971374,2046
1630678971378,2046
1630678971382,2046
1630678971386,2046
1630678971390,2045
1630678971394,2045
1630678971398,2044
1630678971402,2044
1630678971406,2043
1630678971410,2043
1630678971414,2044
1630678971418,2044
1630678971422,2045
1630678971426,2046
1630678971430,2048
1630678971434,2048
1630678971438,2050
1630678971442,2051
1630678971446,2052
1630678971450,2052
1630678971454,2052
1630678971458,2052
1630678971462,2050
1630678971466,2049
1630678971470,2048
1630678971474,2048
1630678971478,2047
1630678971482,2047
1630678971486,2048
1630678971490,2049
1630678971494,2050
1630678971498,2048
1630678971502,2041
1630678971506,2030
1630678971510,2019
1630678971514,2014
1630678971518,2021
1630678971522,2044
1630678971526,2079
1630678971530,2122
1630678971534,2162
1630678971538,2185
1630678971542,2188
1630678971546,2170
1630678971550,2139
1630678971554,2107
1630678971558,2082
1630678971562,2067
1630678971566,2059
1630678971570,2055
1630678971574,2052
1630678971578,2048
1630678971582,2047
1630678971586,2045
1630678971590,2045
1630678971594,2044
1630678971598,2044
1630678971602,2043
1630678971606,2043
1630678971610,2043
1630678971614,2043
1630678971618,2043
1630678971622,2043
1630678971626,2044
1630678971630,2044
1630678971634,2045
1630678971638,2045
1630678971642,2046
1630678971646,2046
1630678971650,2047
1630678971654,2048
1630678971658,2048
1630678971662,2049
1630678971666,2050
1630678971670,2052
1630678971674,2053
1630678971678,2054
1630678971682,2055
1630678971686,2057
1630678971690,2058
1630678971694,2061
1630678971698,2063
1630678971702,2066
1630678971706,2068
1630678971710,2070
1630678971714,2071
1630678971718,2072
1630678971722,2072
1630678971726,2072
1630678971730,2072
1630678971734,2072
1630678971738,2072
1630678971742,2072
1630678971746,2070
1630678971750,2067
1630678971754,2064
1630678971758,2060
1630678971762,2056
1630678971766,2052
1630678971770,2049
1630678971774,2047
1630678971778,2045
1630678971782,2043
1630678971786,2042
1630678971790,2041
1630678971794,2040
1630678971798,2039
1630678971802,2038
1630678971806,2038
1630678971810,2037
1630678971814,2037
1630678971818,2038
1630678971822,2038
1630678971826,2038
1630678971830,2038
1630678971834,2039
1630678971838,2038
1630678971842,2039
1630678971846,2039
1630678971850,2039
1630678971854,2040
1630678971858,2040
1630678971862,2041
1630678971866,2041
1630678971870,2041
1630678971874,2041
1630678971878,2041
1630678971882,2040
1630678971886,2040
1630678971890,2041
1630678971894,2041
1630678971898,2042
1630678971902,2042
1630678971906,2043
1630678971910,2043
1630678971914,2043
1630678971918,2043
1630678971922,2042
1630678971926,2043
1630678971930,2043
1630678971934,2044
1630678971938,2044
1630678971942,2045
1630678971946,2045
1630678971950,2045
1630678971954,2045
1630678971958,2045
1630678971962,2045
1630678971966,2045
1630678971970,2045
1630678971974,2045
1630678971978,2046
1630678971982,2046
1630678971986,2046
1630678971990,2047
1630678971994,2047
1630678971998,2047
1630678972002,2047
1630678972006,2047
1630678972010,2047
1630678972014,2048
1630678972018,2048
1630678972022,2048
1630678972026,2049
1630678972030,2049
1630678972034,2049
1630678972038,2048
1630678972042,2048
1630678972046,2048
1630678972050,2048
1630678972054,2048
1630678972058,2049
1630678972062,2050
1630678972066,2050
1630678972070,2050
1630678972074,2050
1630678972078,2050
1630678972082,2049
1630678972086,2049
1630678972090,2050
1630678972094,2050
1630678972098,2050
1630678972102,2050
1630678972106,2050
1630678972110,2049
1630678972114,2049
1630678972118,2049
1630678972122,2048
1630678972126,2049
1630678972130,2049
1630678972134,2049
1630678972138,2050
1630678972142,2049
1630678972146,2048
1630678972150,2048
1630678972154,2048
1630678972158,2048
1630678972162,2048
1630678972166,2050
1630678972170,2051
1630678972174,2052
1630678972178,2054
1630678972182,2056
1630678972186,2057
1630678972190,2057
1630678972194,2055
1630678972198,2053
1630678972202,2051
1630678972206,2049
1630678972210,2049
1630678972214,2048
1630678972218,2048
1630678972222,2049
1630678972226,2051
1630678972230,2051
1630678972234,2049
1630678972238,2043
1630678972242,2033
1630678972246,2022
1630678972250,2016
1630678972254,2020
1630678972258,2038
1630678972262,2068
1630678972266,2108
1630678972270,2147
1630678972274,2176
1630678972278,2186
1630678972282,2176
1630678972286,2151
1630678972290,2119
1630678972294,2092
1630678972298,2072
1630678972302,2061
1630678972306,2055
1630678972310,2051
1630678972314,2047
1630678972318,2043
1630678972322,2041
1630678972326,2039
1630678972330,2038
1630678972334,2038
1630678972338,2038
1630678972342,2038
1630678972346,2037
1630678972350,2037
1630678972354,2035
1630678972358,2035
1630678972362,2034
1630678972366,2034
1630678972370,2034
1630678972374,2035
1630678972378,2036
1630678972382,2036
1630678972386,2036
1630678972390,2036
1630678972394,2036
1630678972398,2036
1630678972402,2036
1630678972406,2037
1630678972410,2037
1630678972414,2038
1630678972418,2039
1630678972422,2040
1630678972426,2041
1630678972430,2042
1630678972434,2043
1630678972438,2044
1630678972442,2045
1630678972446,2047
1630678972450,2048
1630678972454,2048
1630678972458,2049
1630678972462,2050
1630678972466,2050
1630678972470,2049
1630678972474,2048
1630678972478,2047
1630678972482,2045
1630678972486,2042
1630678972490,2039
1630678972494,2037
1630678972498,2034
1630678972502,2030
1630678972506,2027
1630678972510,2023
1630678972514,2019
1630678972518,2016
1630678972522,2013
1630678972526,2011
1630678972530,2010
1630678972534,2008
1630678972538,2008
1630678972542,2007
1630678972546,2006
1630678972550,2005
1630678972554,2004
1630678972558,2003
1630678972562,2002
1630678972566,2002
1630678972570,2002
1630678972574,2002
1630678972578,2001
1630678972582,2001
1630678972586,2001
1630678972590,2000
1630678972594,1999
1630678972598,1999
1630678972602,1998
1630678972606,1998
1630678972610,1998
1630678972614,1999
1630678972618,1999
1630678972622,2000
1630678972626,2000
1630678972630,2001
1630678972634,2001
1630678972638,2002
1630678972642,2002
1630678972646,2002
1630678972650,2002
1630678972654,2002
1630678972658,2002
1630678972662,2002
1630678972666,2002
1630678972670,2003
1630678972674,2003
1630678972678,2003
1630678972682,2003
1630678972686,2003
1630678972690,2003
1630678972694,2004
1630678972698,2004
1630678972702,2003
1630678972706,2003
1630678972710,2002
1630678972714,2001
1630678972718,2000
1630678972722,2000
1630678972726,2001
1630678972730,2001
1630678972734,2002
1630678972738,2002
1630678972742,2002
1630678972746,2002
1630678972750,2001
1630678972754,2000
1630678972758,2000
1630678972762,2000
1630678972766,2000
1630678972770,2001
1630678972774,2002
1630678972778,2002
1630678972782,2002
1630678972786,2002
1630678972790,2001
1630678972794,2000
1630678972798,1999
1630678972802,1998
1630678972806,1999
1630678972810,1999
1630678972814,2001
1630678972818,2001
1630678972822,2002
1630678972826,2002
1630678972830,2001
1630678972834,2001
1630678972838,2002
1630678972842,2002
1630678972846,2003
1630678972850,2003
1630678972854,2003
1630678972858,2003
1630678972862,2004
1630678972866,2004
1630678972870,2004
1630678972874,2004
1630678972878,2004
1630678972882,2003
1630678972886,2003
1630678972890,2003
1630678972894,2004
1630678972898,2005
1630678972902,2005
1630678972906,2006
1630678972910,2006
1630678972914,2006
1630678972918,2006
1630678972922,2006
1630678972926,2006
1630678972930,2007
1630678972934,2008
1630678972938,2008
1630678972942,2009
1630678972946,2009
1630678972950,2009
1630678972954,2010
1630678972958,2011
1630678972962,2011
1630678972966,2011
1630678972970,2010
1630678972974,2010
1630678972978,2011
1630678972982,2012
1630678972986,2012
1630678972990,2011
1630678972994,2010
1630678972998,2008
1630678973002,2008
1630678973006,2009
1630678973010,2011
1630678973014,2014
1630678973018,2016
1630678973022,2017
1630678973026,2018
1630678973030,2019
1630678973034,2018
1630678973038,2017
1630678973042,2016
1630678973046,2014
1630678973050,2013
1630678973054,2013
1630678973058,2013
1630678973062,2013
1630678973066,2013
1630678973070,2014
1630678973074,2016
1630678973078,2016
1630678973082,2014
1630678973086,2007
1630678973090,1997
1630678973094,1986
1630678973098,1980
1630678973102,1985
1630678973106,2003
1630678973110,2033
1630678973114,2072
1630678973118,2109
1630678973122,2134
1630678973126,2137
1630678973130,2120
1630678973134,2089
1630678973138,2057
1630678973142,2034
1630678973146,2022
1630678973150,2018
1630678973154,2017
1630678973158,2015
1630678973162,2013
1630678973166,2011
1630678973170,2011
1630678973174,2012
1630678973178,2012
1630678973182,2012
1630678973186,2012
1630678973190,2012
1630678973194,2012
1630678973198,2012
1630678973202,2012
1630678973206,2013
1630678973210,2014
1630678973214,2016
1630678973218,2017
1630678973222,2018
1630678973226,2019
1630678973230,2020
1630678973234,2021
1630678973238,2022
1630678973242,2023
1630678973246,2024
1630678973250,2025
1630678973254,2027
1630678973258,2029
1630678973262,2032
1630678973266,2034
1630678973270,2035
1630678973274,2037
1630678973278,2039
1630678973282,2041
1630678973286,2044
1630678973290,2047
1630678973294,2049
1630678973298,2052
1630678973302,2054
1630678973306,2055
1630678973310,2055
1630678973314,2055
1630678973318,2054
1630678973322,2054
1630678973326,2054
1630678973330,2053
1630678973334,2052
1630678973338,2049
1630678973342,2048
1630678973346,2044
1630678973350,2041
1630678973354,2038
1630678973358,2035
1630678973362,2032
1630678973366,2029
1630678973370,2027
1630678973374,2026
1630678973378,2025
1630678973382,2025
1630678973386,2024
1630678973390,2024
1630678973394,2024
1630678973398,2024
1630678973402,2024
1630678973406,2024
1630678973410,2024
1630678973414,2024
1630678973418,2024
1630678973422,2024
1630678973426,2025
1630678973430,2025
1630678973434,2025
1630678973438,2026
1630678973442,2026
1630678973446,2026
1630678973450,2027
1630678973454,2028
1630678973458,2029
1630678973462,2029
1630678973466,2029
1630678973470,2029
1630678973474,2029
1630678973478,2029
1630678973482,2029
1630678973486,2029
1630678973490,2029
1630678973494,2030
1630678973498,2031
1630678973502,2031
1630678973506,2032
1630678973510,2032
1630678973514,2032
1630678973518,2032
1630678973522,2033
1630678973526,2034
1630678973530,2034
1630678973534,2035
1630678973538,2035
1630678973542,2036
1630678973546,2037
1630678973550,2038
1630678973554,2039
1630678973558,2039
1630678973562,2039
1630678973566,2039
1630678973570,2040
1630678973574,2041
1630678973578,2042
1630678973582,2043
1630678973586,2043
1630678973590,2043
1630678973594,2043
1630678973598,2043
1630678973602,2044
1630678973606,2044
1630678973610,2045
1630678973614,2045
1630678973618,2046
1630678973622,2046
1630678973626,2047
1630678973630,2047
1630678973634,2047
1630678973638,2047
1630678973642,2047
1630678973646,2047
1630678973650,2048
1630678973654,2048
1630678973658,2048
1630678973662,2048
1630678973666,2048
1630678973670,2048
1630678973674,2049
1630678973678,2049
1630678973682,2048
1630678973686,2048
1630678973690,2049
1630678973694,2049
1630678973698,2050
1630678973702,2051
1630678973706,2051
1630678973710,2051
1630678973714,2051
1630678973718,2050
1630678973722,2049
1630678973726,2050
1630678973730,2050
1630678973734,2051
1630678973738,2053
1630678973742,2053
1630678973746,2053
1630678973750,2053
1630678973754,2053
1630678973758,2054
1630678973762,2054
1630678973766,2054
1630678973770,2054
1630678973774,2053
1630678973778,2053
1630678973782,2053
1630678973786,2053
1630678973790,2054
1630678973794,2056
1630678973798,2057
1630678973802,2059
1630678973806,2061
1630678973810,2063
1630678973814,2065
1630678973818,2067
1630678973822,2068
1630678973826,2068
1630678973830,2067
1630678973834,2065
1630678973838,2064
1630678973842,2062
1630678973846,2061
1630678973850,2060
1630678973854,2060
1630678973858,2061
1630678973862,2064
1630678973866,2066
1630678973870,2064
1630678973874,2058
1630678973878,2048
1630678973882,2035
1630678973886,2028
1630678973890,2030
1630678973894,2048
1630678973898,2079
1630678973902,2123
1630678973906,2168
1630678973910,2200
1630678973914,2211
1630678973918,2199
1630678973922,2168
1630678973926,2133
1630678973930,2104
1630678973934,2086
1630678973938,2078
1630678973942,2074
1630678973946,2070
1630678973950,2066
1630678973954,2062
1630678973958,2061
1630678973962,2060
1630678973966,2060
1630678973970,2060
1630678973974,2060
1630678973978,2060
1630678973982,2060
1630678973986,2061
1630678973990,2061
1630678973994,2061
1630678973998,2062
1630678974002,2062
1630678974006,2063
1630678974010,2064
1630678974014,2065
1630678974018,2066
1630678974022,2067
1630678974026,2068
1630678974030,2069
1630678974034,2069
1630678974038,2070
1630678974042,2071
1630678974046,2072
1630678974050,2073
1630678974054,2075
1630678974058,2078
1630678974062,2080
1630678974066,2082
1630678974070,2085
1630678974074,2087
1630678974078,2089
1630678974082,2091
1630678974086,2093
1630678974090,2095
1630678974094,2097
1630678974098,2099
1630678974102,2100
1630678974106,2101
1630678974110,2101
1630678974114,2100
1630678974118,2098
1630678974122,2096
1630678974126,2094
1630678974130,2091
1630678974134,2088
1630678974138,2085
1630678974142,2082
1630678974146,2080
1630678974150,2077
1630678974154,2074
1630678974158,2072
1630678974162,2070
1630678974166,2069
1630678974170,2068
1630678974174,2067
1630678974178,2067
1630678974182,2067
1630678974186,2068
1630678974190,2068
1630678974194,2068
1630678974198,2068
1630678974202,2067
1630678974206,2067
1630678974210,2067
1630678974214,2068
1630678974218,2068
1630678974222,2069
1630678974226,2069
1630678974230,2069
1630678974234,2069
1630678974238,2069
1630678974242,2069
1630678974246,2069
1630678974250,2069
1630678974254,2070
1630678974258,2070
1630678974262,2071
1630678974266,2071
1630678974270,2071
1630678974274,2071
1630678974278,2071
1630678974282,2071
1630678974286,2071
1630678974290,2071
1630678974294,2071
1630678974298,2071
1630678974302,2072
1630678974306,2072
1630678974310,2073
1630678974314,2073
1630678974318,2073
1630678974322,2072
1630678974326,2072
1630678974330,2072
1630678974334,2072
1630678974338,2073
1630678974342,2074
1630678974346,2074
1630678974350,2074
1630678974354,2074
1630678974358,2073
1630678974362,2073
1630678974366,2073
1630678974370,2073
1630678974374,2073
1630678974378,2073
1630678974382,2074
1630678974386,2074
1630678974390,2074
1630678974394,2075
1630678974398,2074
1630678974402,2074
1630678974406,2074
1630678974410,2074
1630678974414,2074
1630678974418,2075
1630678974422,2075
1630678974426,2075
1630678974430,2075
1630678974434,2075
1630678974438,2075
1630678974442,2075
1630678974446,2075
1630678974450,2076
1630678974454,2076
1630678974458,2077
1630678974462,2077
1630678974466,2077
1630678974470,2077
1630678974474,2077
1630678974478,2076
1630678974482,2076
1630678974486,2076
1630678974490,2076
1630678974494,2077
1630678974498,2077
1630678974502,2077
1630678974506,2077
1630678974510,2077
1630678974514,2076
1630678974518,2076
1630678974522,2075
1630678974526,2075
1630678974530,2075
1630678974534,2075
1630678974538,2075
1630678974542,2074
1630678974546,2074
1630678974550,2073
1630678974554,2073
1630678974558,2073
1630678974562,2075
1630678974566,2076
1630678974570,2078
1630678974574,2080
1630678974578,2082
1630678974582,2084
1630678974586,2084
1630678974590,2084
1630678974594,2083
1630678974598,2081
1630678974602,2079
1630678974606,2077
1630678974610,2075
1630678974614,2074
1630678974618,2074
1630678974622,2076
1630678974626,2079
1630678974630,2080
1630678974634,2077
1630678974638,2068
1630678974642,2056
1630678974646,2045
1630678974650,2040
1630678974654,2048
1630678974658,2072
1630678974662,2109
1630678974666,2154
1630678974670,2194
1630678974674,2219
1630678974678,2223
1630678974682,2204
1630678974686,2173
1630678974690,2139
1630678974694,2113
1630678974698,2096
1630678974702,2088
1630678974706,2083
1630678974710,2079
1630678974714,2075
1630678974718,2071
1630678974722,2070
1630678974726,2069
1630678974730,2069
1630678974734,2069
1630678974738,2069
1630678974742,2069
1630678974746,2069
1630678974750,2069
1630678974754,2069
1630678974758,2069
1630678974762,2069
1630678974766,2069
1630678974770,2070
1630678974774,2070
1630678974778,2071
1630678974782,2072
1630678974786,2073
1630678974790,2073
1630678974794,2074
1630678974798,2075
1630678974802,2076
1630678974806,2076
1630678974810,2077
1630678974814,2079
1630678974818,2080
1630678974822,2083
1630678974826,2085
1630678974830,2087
1630678974834,2088
1630678974838,2090
1630678974842,2091
1630678974846,2093
1630678974850,2095
1630678974854,2097
1630678974858,2098
1630678974862,2100
1630678974866,2100
1630678974870,2100
1630678974874,2100
1630678974878,2099
1630678974882,2097
1630678974886,2095
1630678974890,2092
1630678974894,2088
1630678974898,2084
1630678974902,2081
1630678974906,2077
1630678974910,2074
1630678974914,2072
1630678974918,2069
1630678974922,2066
1630678974926,2064
1630678974930,2063
1630678974934,2062
1630678974938,2062
1630678974942,2062
1630678974946,2062
1630678974950,2061
1630678974954,2060
1630678974958,2060
1630678974962,2060
1630678974966,2060
1630678974970,2060
1630678974974,2061
1630678974978,2061
1630678974982,2061
1630678974986,2061
1630678974990,2060
1630678974994,2060
1630678974998,2059
1630678975002,2059
1630678975006,2059
1630678975010,2059
1630678975014,2060
1630678975018,2061
1630678975022,2061
1630678975026,2061
1630678975030,2061
1630678975034,2061
1630678975038,2060
1630678975042,2060
1630678975046,2060
1630678975050,2060
1630678975054,2060
1630678975058,2061
1630678975062,2061
1630678975066,2061
1630678975070,2062
1630678975074,2062
1630678975078,2061
1630678975082,2061
1630678975086,2061
1630678975090,2061
1630678975094,2061
1630678975098,2062
1630678975102,2062
1630678975106,2062
1630678975110,2062
1630678975114,2062
1630678975118,2061
1630678975122,2061
1630678975126,2062
1630678975130,2062
1630678975134,2063
1630678975138,2063
1630678975142,2063
1630678975146,2062
1630678975150,2062
1630678975154,2062
1630678975158,2062
1630678975162,2062
1630678975166,2062
1630678975170,2062
1630678975174,2063
1630678975178,2063
1630678975182,2063
1630678975186,2063
1630678975190,2063
1630678975194,2063
1630678975198,2062
1630678975202,2062
1630678975206,2063
1630678975210,2063
1630678975214,2063
1630678975218,2063
1630678975222,2063
1630678975226,2063
1630678975230,2063
1630678975234,2063
1630678975238,2063
1630678975242,2062
1630678975246,2062
1630678975250,2062
1630678975254,2063
1630678975258,2063
1630678975262,2063
1630678975266,2064
1630678975270,2064
1630678975274,2064
1630678975278,2064
1630678975282,2063
1630678975286,2063
1630678975290,2063
1630678975294,2063
1630678975298,2063
1630678975302,2063
1630678975306,2063
1630678975310,2063
1630678975314,2062
1630678975318,2060
1630678975322,2059
1630678975326,2059
1630678975330,2060
1630678975334,2062
1630678975338,2064
1630678975342,2066
1630678975346,2068
1630678975350,2069
1630678975354,2070
1630678975358,2071
1630678975362,2071
1630678975366,2070
1630678975370,2068
1630678975374,2067
1630678975378,2066
1630678975382,2066
1630678975386,2065
1630678975390,2065
1630678975394,2066
1630678975398,2067
1630678975402,2068
1630678975406,2065
1630678975410,2058
1630678975414,2048
1630678975418,2038
1630678975422,2033
1630678975426,2040
1630678975430,2058
1630678975434,2091
1630678975438,2131
1630678975442,2170
1630678975446,2196
1630678975450,2204
1630678975454,2192
1630678975458,2166
1630678975462,2135
1630678975466,2108
1630678975470,2090
1630678975474,2080
1630678975478,2074
1630678975482,2069
1630678975486,2066
1630678975490,2062
1630678975494,2062
1630678975498,2061
1630678975502,2061
1630678975506,2061
1630678975510,2061
1630678975514,2060
1630678975518,2060
1630678975522,2060
1630678975526,2060
1630678975530,2060
1630678975534,2061
1630678975538,2062
1630678975542,2063
1630678975546,2064
1630678975550,2064
1630678975554,2064
1630678975558,2064
1630678975562,2065
1630678975566,2066
1630678975570,2067
1630678975574,2068
1630678975578,2069
1630678975582,2071
1630678975586,2072
1630678975590,2073
1630678975594,2074
1630678975598,2076
1630678975602,2078
1630678975606,2080
1630678975610,2082
1630678975614,2085
1630678975618,2087
1630678975622,2089
1630678975626,2090
1630678975630,2092
1630678975634,2093
1630678975638,2093
1630678975642,2093
1630678975646,2093
1630678975650,2092
1630678975654,2091
1630678975658,2089
1630678975662,2087
1630678975666,2084
1630678975670,2080
1630678975674,2076
1630678975678,2072
1630678975682,2069
1630678975686,2066
1630678975690,2064
1630678975694,2062
1630678975698,2061
1630678975702,2059
1630678975706,2058
1630678975710,2057
1630678975714,2056
1630678975718,2056
1630678975722,2055
1630678975726,2055
1630678975730,2055
1630678975734,2055
1630678975738,2055
1630678975742,2056
1630678975746,2056
1630678975750,2056
1630678975754,2056
1630678975758,2055
1630678975762,2055
1630678975766,2055
1630678975770,2055
1630678975774,2056
1630678975778,2056
1630678975782,2057
1630678975786,2057
1630678975790,2057
1630678975794,2057
1630678975798,2057
1630678975802,2057
1630678975806,2057
1630678975810,2057
1630678975814,2057
1630678975818,2057
1630678975822,2058
1630678975826,2058
1630678975830,2058
1630678975834,2058
1630678975838,2058
1630678975842,2058
1630678975846,2058
1630678975850,2058
1630678975854,2058
1630678975858,2058
1630678975862,2058
1630678975866,2059
1630678975870,2059
1630678975874,2059
1630678975878,2059
1630678975882,2058
1630678975886,2058
1630678975890,2057
1630678975894,2057
1630678975898,2058
1630678975902,2058
1630678975906,2059
1630678975910,2059
1630678975914,2058
1630678975918,2058
1630678975922,2058
1630678975926,2058
1630678975930,2058
1630678975934,2059
1630678975938,2059
1630678975942,2059
1630678975946,2059
1630678975950,2059
1630678975954,2059
1630678975958,2058
1630678975962,2058
1630678975966,2057
1630678975970,2058
1630678975974,2058
1630678975978,2058
1630678975982,2058
1630678975986,2058
1630678975990,2058
1630678975994,2057
1630678975998,2057
1630678976002,2057
1630678976006,2057
1630678976010,2057
1630678976014,2057
1630678976018,2057
1630678976022,2057
1630678976026,2057
1630678976030,2057
1630678976034,2056
1630678976038,2056
1630678976042,2056
1630678976046,2056
1630678976050,2056
1630678976054,2057
1630678976058,2057
1630678976062,2058
1630678976066,2058
1630678976070,2057
1630678976074,2056
1630678976078,2055
1630678976082,2054
1630678976086,2055
1630678976090,2057
1630678976094,2059
1630678976098,2061
1630678976102,2063
1630678976106,2064
1630678976110,2065
1630678976114,2065
1630678976118,2064
1630678976122,2063
1630678976126,2061
1630678976130,2059
1630678976134,2059
1630678976138,2058
1630678976142,2059
1630678976146,2059
1630678976150,2060
1630678976154,2061
1630678976158,2061
1630678976162,2060
1630678976166,2054
1630678976170,2046
1630678976174,2036
1630678976178,2031
1630678976182,2034
1630678976186,2048
1630678976190,2075
1630678976194,2111
1630678976198,2147
1630678976202,2173
1630678976206,2181
1630678976210,2169
1630678976214,2143
1630678976218,2112
1630678976222,2087
1630678976226,2072
1630678976230,2064
1630678976234,2062
1630678976238,2059
1630678976242,2056
1630678976246,2054
1630678976250,2052
1630678976254,2053
1630678976258,2053
1630678976262,2052
1630678976266,2052
1630678976270,2052
1630678976274,2052
1630678976278,2051
1630678976282,2051
1630678976286,2050
1630678976290,2050
1630678976294,2052
1630678976298,2053
1630678976302,2055
1630678976306,2056
1630678976310,2056
1630678976314,2056
1630678976318,2056
1630678976322,2057
1630678976326,2058
1630678976330,2059
1630678976334,2061
1630678976338,2062
1630678976342,2064
1630678976346,2066
1630678976350,2068
1630678976354,2070
1630678976358,2071
1630678976362,2073
1630678976366,2075
1630678976370,2077
1630678976374,2079
1630678976378,2081
1630678976382,2083
1630678976386,2085
1630678976390,2086
1630678976394,2086
1630678976398,2085
1630678976402,2085
1630678976406,2084
1630678976410,2082
1630678976414,2081
1630678976418,2079
1630678976422,2077
1630678976426,2074
1630678976430,2070
1630678976434,2066
1630678976438,2062
1630678976442,2059
1630678976446,2056
1630678976450,2054
1630678976454,2052
1630678976458,2050
1630678976462,2049
1630678976466,2048
1630678976470,2048
1630678976474,2048
1630678976478,2048
1630678976482,2048
1630678976486,2048
1630678976490,2047
1630678976494,2047
1630678976498,2047
1630678976502,2047
1630678976506,2047
1630678976510,2047
1630678976514,2047
1630678976518,2047
1630678976522,2046
1630678976526,2046
1630678976530,2046
1630678976534,2046
1630678976538,2047
1630678976542,2047
1630678976546,2048
1630678976550,2048
1630678976554,2047
1630678976558,2047
1630678976562,2046
1630678976566,2046
1630678976570,2047
1630678976574,2047
1630678976578,2048
1630678976582,2048
1630678976586,2048
1630678976590,2048
1630678976594,2048
1630678976598,2048
1630678976602,2048
1630678976606,2048
1630678976610,2048
1630678976614,2048
1630678976618,2049
1630678976622,2049
1630678976626,2050
1630678976630,2050
1630678976634,2049
1630678976638,2049
1630678976642,2049
1630678976646,2049
1630678976650,2049
1630678976654,2050
1630678976658,2050
1630678976662,2051
1630678976666,2050
1630678976670,2050
1630678976674,2050
1630678976678,2049
1630678976682,2049
1630678976686,2049
1630678976690,2049
1630678976694,2050
1630678976698,2050
1630678976702,2050
1630678976706,2051
1630678976710,2051
1630678976714,2051
1630678976718,2051
1630678976722,2051
1630678976726,2050
1630678976730,2050
1630678976734,2050
1630678976738,2051
1630678976742,2050
1630678976746,2050
1630678976750,2049
1630678976754,2048
1630678976758,2048
1630678976762,2048
1630678976766,2048
1630678976770,2049
1630678976774,2051
1630678976778,2053
1630678976782,2055
1630678976786,2057
1630678976790,2058
1630678976794,2059
1630678976798,2059
1630678976802,2058
1630678976806,2056
1630678976810,2055
1630678976814,2054
1630678976818,2053
1630678976822,2053
1630678976826,2053
1630678976830,2053
1630678976834,2055
1630678976838,2056
1630678976842,2054
1630678976846,2048
1630678976850,2038
1630678976854,2027
1630678976858,2020
1630678976862,2024
1630678976866,2041
1630678976870,2071
1630678976874,2113
1630678976878,2154
1630678976882,2183
1630678976886,2191
1630678976890,2178
1630678976894,2150
1630678976898,2117
1630678976902,2090
1630678976906,2073
1630678976910,2065
1630678976914,2061
1630678976918,2057
1630678976922,2054
1630678976926,2050
1630678976930,2049
1630678976934,2049
1630678976938,2050
1630678976942,2049
1630678976946,2049
1630678976950,2049
1630678976954,2048
1630678976958,2048
1630678976962,2048
1630678976966,2048
1630678976970,2048
1630678976974,2050
1630678976978,2051
1630678976982,2052
1630678976986,2053
1630678976990,2053
1630678976994,2053
1630678976998,2053
1630678977002,2054
1630678977006,2055
1630678977010,2056
1630678977014,2057
1630678977018,2058
1630678977022,2060
1630678977026,2061
1630678977030,2063
1630678977034,2065
1630678977038,2067
1630678977042,2069
1630678977046,2071
1630678977050,2073
1630678977054,2075
1630678977058,2078
1630678977062,2080
1630678977066,2082
1630678977070,2083
1630678977074,2084
1630678977078,2083
1630678977082,2083
1630678977086,2082
1630678977090,2081
1630678977094,2079
1630678977098,2076
1630678977102,2072
1630678977106,2068
1630678977110,2064
1630678977114,2060
1630678977118,2056
1630678977122,2053
1630678977126,2051
1630678977130,2048
1630678977134,2048
1630678977138,2047
1630678977142,2046
1630678977146,2046
1630678977150,2045
1630678977154,2044
1630678977158,2043
1630678977162,2043
1630678977166,2043
1630678977170,2043
1630678977174,2043
1630678977178,2043
1630678977182,2043
1630678977186,2043
1630678977190,2043
1630678977194,2043
1630678977198,2043
1630678977202,2043
1630678977206,2043
1630678977210,2043
1630678977214,2043
1630678977218,2043
1630678977222,2044
1630678977226,2044
1630678977230,2044
1630678977234,2044
1630678977238,2044
1630678977242,2044
1630678977246,2044
1630678977250,2044
1630678977254,2045
1630678977258,2045
1630678977262,2046
1630678977266,2046
1630678977270,2046
1630678977274,2045
1630678977278,2044
1630678977282,2044
1630678977286,2044
1630678977290,2044
1630678977294,2045
1630678977298,2045
1630678977302,2046
1630678977306,2046
1630678977310,2045
1630678977314,2045
1630678977318,2044
1630678977322,2044
1630678977326,2044
1630678977330,2045
1630678977334,2045
1630678977338,2045
1630678977342,2045
1630678977346,2045
1630678977350,2045
1630678977354,2045
1630678977358,2045
1630678977362,2046
1630678977366,2046
1630678977370,2046
1630678977374,2047
1630678977378,2047
1630678977382,2047
1630678977386,2048
1630678977390,2048
1630678977394,2047
1630678977398,2047
1630678977402,2047
1630678977406,2047
1630678977410,2047
1630678977414,2048
1630678977418,2048
1630678977422,2048
1630678977426,2048
1630678977430,2048
1630678977434,2047
1630678977438,2046
1630678977442,2046
1630678977446,2046
1630678977450,2047
1630678977454,2048
1630678977458,2050
1630678977462,2052
1630678977466,2054
1630678977470,2055
1630678977474,2056
1630678977478,2056
1630678977482,2055
1630678977486,2053
1630678977490,2052
1630678977494,2051
1630678977498,2050
1630678977502,2050
1630678977506,2050
1630678977510,2050
1630678977514,2051
1630678977518,2053
1630678977522,2053
1630678977526,2050
1630678977530,2042
1630678977534,2031
1630678977538,2022
1630678977542,2020
1630678977546,2031
1630678977550,2054
1630678977554,2089
1630678977558,2129
1630678977562,2164
1630678977566,2183
1630678977570,2182
1630678977574,2163
1630678977578,2133
1630678977582,2104
1630678977586,2082
1630678977590,2069
1630678977594,2062
1630678977598,2057
1630678977602,2054
1630678977606,2050
1630678977610,2048
1630678977614,2048
1630678977618,2048
1630678977622,2048
1630678977626,2048
1630678977630,2048
1630678977634,2047
1630678977638,2047
1630678977642,2047
1630678977646,2047
1630678977650,2047
1630678977654,2048
1630678977658,2048
1630678977662,2049
1630678977666,2049
1630678977670,2050
1630678977674,2050
1630678977678,2051
1630678977682,2052
1630678977686,2052
1630678977690,2053
1630678977694,2054
1630678977698,2056
1630678977702,2057
1630678977706,2059
1630678977710,2060
1630678977714,2061
1630678977718,2062
1630678977722,2064
1630678977726,2065
1630678977730,2068
1630678977734,2070
1630678977738,2073
1630678977742,2075
1630678977746,2077
1630678977750,2078
1630678977754,2079
1630678977758,2079
1630678977762,2079
1630678977766,2078
1630678977770,2077
1630678977774,2076
1630678977778,2074
1630678977782,2071
1630678977786,2068
1630678977790,2064
1630678977794,2060
1630678977798,2056
1630678977802,2053
1630678977806,2050
1630678977810,2048
1630678977814,2048
1630678977818,2047
1630678977822,2046
1630678977826,2045
1630678977830,2045
1630678977834,2044
1630678977838,2043
1630678977842,2043
1630678977846,2043
1630678977850,2043
1630678977854,2043
1630678977858,2044
1630678977862,2044
1630678977866,2045
1630678977870,2044
1630678977874,2044
1630678977878,2043
1630678977882,2043
1630678977886,2044
1630678977890,2044
1630678977894,2045
1630678977898,2045
1630678977902,2046
1630678977906,2046
1630678977910,2045
1630678977914,2045
1630678977918,2045
1630678977922,2045
1630678977926,2044
1630678977930,2044
1630678977934,2045
1630678977938,2045
1630678977942,2046
1630678977946,2046
1630678977950,2046
1630678977954,2046
1630678977958,2046
1630678977962,2045
1630678977966,2045
1630678977970,2045
1630678977974,2046
1630678977978,2047
1630678977982,2047
1630678977986,2048
1630678977990,2047
1630678977994,2047
1630678977998,2047
1630678978002,2046
1630678978006,2046
1630678978010,2047
1630678978014,2047
1630678978018,2048
1630678978022,2048
1630678978026,2048
1630678978030,2048
1630678978034,2048
1630678978038,2047
1630678978042,2047
1630678978046,2047
1630678978050,2047
1630678978054,2048
1630678978058,2048
1630678978062,2048
1630678978066,2048
1630678978070,2048
1630678978074,2048
1630678978078,2048
1630678978082,2048
1630678978086,2048
1630678978090,2048
1630678978094,2048
1630678978098,2049
1630678978102,2049
1630678978106,2049
1630678978110,2048
1630678978114,2048
1630678978118,2047
1630678978122,2046
1630678978126,2046
1630678978130,2046
1630678978134,2047
1630678978138,2048
1630678978142,2049
1630678978146,2051
1630678978150,2053
1630678978154,2054
1630678978158,2054
1630678978162,2054
1630678978166,2054
1630678978170,2053
1630678978174,2052
1630678978178,2051
1630678978182,2049
1630678978186,2048
1630678978190,2048
1630678978194,2048
1630678978198,2048
1630678978202,2050
1630678978206,2050
1630678978210,2048
1630678978214,2044
1630678978218,2034
1630678978222,2024
1630678978226,2019
1630678978230,2023
1630678978234,2040
1630678978238,2068
1630678978242,2105
1630678978246,2142
1630678978250,2167
1630678978254,2174
1630678978258,2163
1630678978262,2138
1630678978266,2110
1630678978270,2086
1630678978274,2070
1630678978278,2061
1630678978282,2056
1630678978286,2052
1630678978290,2048
1630678978294,2046
1630678978298,2045
1630678978302,2045
1630678978306,2044
1630678978310,2044
1630678978314,2043
1630678978318,2043
1630678978322,2043
1630678978326,2043
1630678978330,2044
1630678978334,2044
1630678978338,2044
1630678978342,2045
1630678978346,2046
1630678978350,2047
1630678978354,2048
1630678978358,2048
1630678978362,2048
1630678978366,2049
1630678978370,2050
1630678978374,2051
1630678978378,2053
1630678978382,2055
1630678978386,2056
1630678978390,2057
1630678978394,2058
1630678978398,2059
1630678978402,2061
1630678978406,2063
1630678978410,2065
1630678978414,2068
1630678978418,2071
1630678978422,2073
1630678978426,2075
1630678978430,2077
1630678978434,2078
1630678978438,2079
1630678978442,2079
1630678978446,2080
1630678978450,2080
1630678978454,2079
1630678978458,2078
1630678978462,2077
1630678978466,2075
1630678978470,2072
1630678978474,2069
1630678978478,2065
1630678978482,2062
1630678978486,2058
1630678978490,2055
1630678978494,2052
1630678978498,2051
1630678978502,2049
1630678978506,2048
1630678978510,2048
1630678978514,2047
1630678978518,2046
1630678978522,2045
1630678978526,2044
1630678978530,2043
1630678978534,2043
1630678978538,2044
1630678978542,2044
1630678978546,2044
1630678978550,2043
1630678978554,2043
1630678978558,2042
1630678978562,2041
1630678978566,2042
1630678978570,2042
1630678978574,2042
1630678978578,2042
1630678978582,2042
1630678978586,2043
1630678978590,2043
1630678978594,2043
1630678978598,2042
1630678978602,2042
1630678978606,2041
1630678978610,2041
1630678978614,2042
1630678978618,2042
1630678978622,2043
1630678978626,2044
1630678978630,2044
1630678978634,2043
1630678978638,2042
1630678978642,2041
1630678978646,2041
1630678978650,2041
1630678978654,2042
1630678978658,2043
1630678978662,2043
1630678978666,2044
1630678978670,2044
1630678978674,2043
1630678978678,2042
1630678978682,2041
1630678978686,2041
1630678978690,2042
1630678978694,2042
1630678978698,2043
1630678978702,2043
1630678978706,2043
1630678978710,2043
1630678978714,2042
1630678978718,2042
1630678978722,2043
1630678978726,2043
1630678978730,2043
1630678978734,2043
1630678978738,2043
1630678978742,2043
1630678978746,2044
1630678978750,2044
1630678978754,2044
1630678978758,2044
1630678978762,2044
1630678978766,2044
1630678978770,2044
1630678978774,2044
1630678978778,2044
1630678978782,2044
1630678978786,2044
1630678978790,2043
1630678978794,2043
1630678978798,2043
1630678978802,2042
1630678978806,2041
1630678978810,2041
1630678978814,2041
1630678978818,2042
1630678978822,2043
1630678978826,2045
1630678978830,2046
1630678978834,2047
1630678978838,2048
1630678978842,2048
1630678978846,2049
1630678978850,2048
1630678978854,2048
1630678978858,2046
1630678978862,2044
1630678978866,2042
1630678978870,2041
1630678978874,2040
1630678978878,2041
1630678978882,2043
1630678978886,2045
1630678978890,2045
1630678978894,2041
1630678978898,2033
1630678978902,2023
1630678978906,2015
1630678978910,2015
1630678978914,2025
1630678978918,2048
1630678978922,2079
1630678978926,2116
1630678978930,2146
1630678978934,2161
1630678978938,2156
1630678978942,2135
1630678978946,2106
1630678978950,2079
1630678978954,2060
1630678978958,2051
1630678978962,2047
1630678978966,2045
1630678978970,2042
1630678978974,2040
1630678978978,2038
1630678978982,2038
1630678978986,2037
1630678978990,2035
1630678978994,2034
1630678978998,2033
1630678979002,2033
1630678979006,2034
1630678979010,2035
1630678979014,2037
1630678979018,2038
1630678979022,2039
1630678979026,2039
1630678979030,2040
1630678979034,2041
1630678979038,2042
1630678979042,2042
1630678979046,2043
1630678979050,2043
1630678979054,2044
1630678979058,2045
1630678979062,2047
1630678979066,2048
1630678979070,2049
1630678979074,2050
1630678979078,2050
1630678979082,2052
1630678979086,2054
1630678979090,2056
1630678979094,2059
1630678979098,2062
1630678979102,2064
1630678979106,2066
1630678979110,2068
1630678979114,2070
1630678979118,2070
1630678979122,2070
1630678979126,2070
1630678979130,2069
1630678979134,2068
1630678979138,2068
1630678979142,2066
1630678979146,2064
1630678979150,2060
1630678979154,2055
1630678979158,2051
1630678979162,2047
1630678979166,2043
1630678979170,2040
1630678979174,2038
1630678979178,2037
1630678979182,2035
1630678979186,2033
1630678979190,2031
1630678979194,2029
1630678979198,2028
1630678979202,2028
1630678979206,2028
1630678979210,2028
1630678979214,2028
1630678979218,2029
1630678979222,2029
1630678979226,2029
1630678979230,2029
1630678979234,2029
1630678979238,2028
1630678979242,2028
1630678979246,2027
1630678979250,2027
1630678979254,2028
1630678979258,2028
1630678979262,2029
1630678979266,2029
1630678979270,2030
1630678979274,2029
1630678979278,2029
1630678979282,2028
1630678979286,2027
1630678979290,2027
1630678979294,2028
1630678979298,2029
1630678979302,2030
1630678979306,2031
1630678979310,2032
1630678979314,2032
1630678979318,2032
1630678979322,2031
1630678979326,2031
1630678979330,2031
1630678979334,2032
1630678979338,2032
1630678979342,2033
1630678979346,2033
1630678979350,2033
1630678979354,2033
1630678979358,2033
1630678979362,2032
1630678979366,2032
1630678979370,2032
1630678979374,2032
1630678979378,2033
1630678979382,2034
1630678979386,2034
1630678979390,2033
1630678979394,2032
1630678979398,2031
1630678979402,2030
1630678979406,2030
1630678979410,2030
1630678979414,2030
1630678979418,2030
1630678979422,2031
1630678979426,2031
1630678979430,2031
1630678979434,2030
1630678979438,2029
1630678979442,2029
1630678979446,2029
1630678979450,2029
1630678979454,2029
1630678979458,2028
1630678979462,2027
1630678979466,2026
1630678979470,2026
1630678979474,2026
1630678979478,2026
1630678979482,2027
1630678979486,2029
1630678979490,2030
1630678979494,2032
1630678979498,2033
1630678979502,2034
1630678979506,2033
1630678979510,2032
1630678979514,2030
1630678979518,2027
1630678979522,2025
1630678979526,2024
1630678979530,2023
1630678979534,2022
1630678979538,2023
1630678979542,2025
1630678979546,2027
1630678979550,2026
1630678979554,2022
1630678979558,2013
1630678979562,2002
1630678979566,1992
1630678979570,1989
1630678979574,1999
1630678979578,2022
1630678979582,2056
1630678979586,2097
1630678979590,2131
1630678979594,2147
1630678979598,2143
1630678979602,2119
1630678979606,2087
1630678979610,2058
1630678979614,2039
1630678979618,2029
1630678979622,2025
1630678979626,2022
1630678979630,2018
1630678979634,2014
1630678979638,2011
1630678979642,2010
1630678979646,2010
1630678979650,2010
1630678979654,2009
1630678979658,2009
1630678979662,2009
1630678979666,2008
1630678979670,2008
1630678979674,2007
1630678979678,2007
1630678979682,2007
1630678979686,2007
1630678979690,2008
1630678979694,2008
1630678979698,2009
1630678979702,2009
1630678979706,2010
1630678979710,2010
1630678979714,2010
1630678979718,2010
1630678979722,2011
1630678979726,2012
1630678979730,2013
1630678979734,2014
1630678979738,2016
1630678979742,2018
1630678979746,2020
1630678979750,2021
1630678979754,2023
1630678979758,2025
1630678979762,2027
1630678979766,2028
1630678979770,2029
1630678979774,2031
1630678979778,2032
1630678979782,2033
1630678979786,2033
1630678979790,2033
1630678979794,2032
1630678979798,2030
1630678979802,2027
1630678979806,2024
1630678979810,2020
1630678979814,2016
1630678979818,2012
1630678979822,2008
1630678979826,2004
1630678979830,2001
1630678979834,1998
1630678979838,1995
1630678979842,1993
1630678979846,1991
1630678979850,1989
1630678979854,1987
1630678979858,1986
1630678979862,1986
1630678979866,1986
1630678979870,1986
1630678979874,1985
1630678979878,1984
1630678979882,1983
1630678979886,1982
1630678979890,1982
1630678979894,1981
1630678979898,1981
1630678979902,1981
1630678979906,1981
1630678979910,1981
1630678979914,1981
1630678979918,1981
1630678979922,1980
1630678979926,1981
1630678979930,1981
1630678979934,1982
1630678979938,1982
1630678979942,1982
1630678979946,1981
1630678979950,1981
1630678979954,1980
1630678979958,1980
1630678979962,1980
1630678979966,1981
1630678979970,1981
1630678979974,1982
1630678979978,1983
1630678979982,1984
1630678979986,1985
1630678979990,1985
1630678979994,1985
1630678979998,1985
1630678980002,1985
1630678980006,1985
1630678980010,1985
1630678980014,1986
1630678980018,1986
1630678980022,1986
1630678980026,1986
1630678980030,1987
1630678980034,1987
1630678980038,1987
1630678980042,1988
1630678980046,1988
1630678980050,1988
1630678980054,1989
1630678980058,1990
1630678980062,1990
1630678980066,1990
1630678980070,1990
1630678980074,1991
1630678980078,1991
1630678980082,1991
1630678980086,1992
1630678980090,1993
1630678980094,1994
1630678980098,1996
1630678980102,1997
1630678980106,1997
1630678980110,1998
1630678980114,1998
1630678980118,1998
1630678980122,1998
1630678980126,1998
1630678980130,1997
1630678980134,1997
1630678980138,1996
1630678980142,1996
1630678980146,1995
1630678980150,1994
1630678980154,1993
1630678980158,1993
1630678980162,1993
1630678980166,1994
1630678980170,1997
1630678980174,1999
1630678980178,2002
1630678980182,2004
1630678980186,2006
1630678980190,2006
1630678980194,2007
1630678980198,2006
1630678980202,2006
1630678980206,2005
1630678980210,2004
1630678980214,2003
1630678980218,2002
1630678980222,2002
1630678980226,2003
1630678980230,2004
1630678980234,2006
1630678980238,2006
1630678980242,2004
1630678980246,1997
1630678980250,1986
1630678980254,1976
1630678980258,1972
1630678980262,1981
1630678980266,2003
1630678980270,2038
1630678980274,2080
1630678980278,2118
1630678980282,2143
1630678980286,2148
1630678980290,2132
1630678980294,2103
1630678980298,2072
1630678980302,2048
1630678980306,2033
1630678980310,2024
1630678980314,2019
1630678980318,2015
1630678980322,2011
1630678980326,2009
1630678980330,2008
1630678980334,2008
1630678980338,2008
1630678980342,2008
1630678980346,2008
1630678980350,2009
1630678980354,2009
1630678980358,2009
1630678980362,2010
1630678980366,2010
1630678980370,2011
1630678980374,2013
1630678980378,2014
1630678980382,2015
1630678980386,2016
1630678980390,2016
1630678980394,2017
1630678980398,2018
1630678980402,2019
1630678980406,2021
1630678980410,2023
1630678980414,2025
1630678980418,2027
1630678980422,2029
1630678980426,2030
1630678980430,2032
1630678980434,2035
1630678980438,2037
1630678980442,2039
1630678980446,2042
1630678980450,2044
1630678980454,2047
1630678980458,2048
1630678980462,2050
1630678980466,2051
1630678980470,2052
1630678980474,2052
1630678980478,2052
1630678980482,2052
1630678980486,2051
1630678980490,2050
1630678980494,2048
1630678980498,2047
1630678980502,2044
1630678980506,2040
1630678980510,2037
1630678980514,2034
1630678980518,2031
1630678980522,2028
1630678980526,2026
1630678980530,2024
1630678980534,2023
1630678980538,2023
1630678980542,2022
1630678980546,2022
1630678980550,2022
1630678980554,2022
1630678980558,2023
1630678980562,2024
1630678980566,2025
1630678980570,2026
1630678980574,2026
1630678980578,2026
1630678980582,2026
1630678980586,2026
1630678980590,2026
1630678980594,2026
1630678980598,2026
1630678980602,2026
1630678980606,2027
1630678980610,2028
1630678980614,2029
1630678980618,2031
1630678980622,2031
1630678980626,2032
1630678980630,2032
1630678980634,2032
1630678980638,2032
1630678980642,2033
1630678980646,2033
1630678980650,2034
1630678980654,2035
1630678980658,2036
1630678980662,2037
1630678980666,2037
1630678980670,2037
1630678980674,2037
1630678980678,2037
1630678980682,2037
1630678980686,2037
1630678980690,2038
1630678980694,2039
1630678980698,2039
1630678980702,2040
1630678980706,2040
1630678980710,2041
1630678980714,2041
1630678980718,2041
1630678980722,2041
1630678980726,2041
1630678980730,2042
1630678980734,2043
1630678980738,2045
1630678980742,2046
1630678980746,2047
1630678980750,2047
1630678980754,2047
1630678980758,2046
1630678980762,2045
1630678980766,2045
1630678980770,2045
1630678980774,2045
1630678980778,2046
1630678980782,2047
1630678980786,2047
1630678980790,2048
1630678980794,2048
1630678980798,2048
1630678980802,2049
1630678980806,2050
1630678980810,2050
1630678980814,2051
1630678980818,2052
1630678980822,2052
1630678980826,2053
1630678980830,2053
1630678980834,2053
1630678980838,2053
1630678980842,2053
1630678980846,2054
1630678980850,2054
1630678980854,2055
1630678980858,2056
1630678980862,2057
1630678980866,2058
1630678980870,2058
1630678980874,2059
1630678980878,2059
1630678980882,2059
1630678980886,2059
1630678980890,2059
1630678980894,2060
1630678980898,2060
1630678980902,2060
1630678980906,2061
1630678980910,2061
1630678980914,2061
1630678980918,2062
1630678980922,2062
1630678980926,2062
1630678980930,2063
1630678980934,2063
1630678980938,2064
1630678980942,2065
1630678980946,2065
1630678980950,2064
1630678980954,2063
1630678980958,2062
1630678980962,2063
1630678980966,2065
1630678980970,2068
1630678980974,2070
1630678980978,2072
1630678980982,2073
1630678980986,2073
1630678980990,2074
1630678980994,2074
1630678980998,2074
1630678981002,2074
1630678981006,2074
1630678981010,2073
1630678981014,2073
1630678981018,2073
1630678981022,2072
1630678981026,2072
1630678981030,2072
1630678981034,2072
1630678981038,2073
1630678981042,2073
1630678981046,2072
1630678981050,2067
1630678981054,2058
1630678981058,2049
1630678981062,2044
1630678981066,2048
1630678981070,2062
1630678981074,2089
1630678981078,2126
1630678981082,2163
1630678981086,2191
1630678981090,2203
1630678981094,2197
1630678981098,2175
1630678981102,2146
1630678981106,2120
1630678981110,2101
1630678981114,2089
1630678981118,2082
1630678981122,2078
1630678981126,2074
1630678981130,2071
1630678981134,2070
1630678981138,2070
1630678981142,2069
1630678981146,2069
1630678981150,2069
1630678981154,2069
1630678981158,2068
1630678981162,2068
1630678981166,2068
1630678981170,2069
1630678981174,2070
1630678981178,2071
1630678981182,2072
1630678981186,2073
1630678981190,2074
1630678981194,2074
1630678981198,2074
1630678981202,2075
1630678981206,2075
1630678981210,2076
1630678981214,2077
1630678981218,2079
1630678981222,2080
1630678981226,2081
1630678981230,2082
1630678981234,2084
1630678981238,2085
1630678981242,2086
1630678981246,2088
1630678981250,2090
1630678981254,2093
1630678981258,2096
1630678981262,2099
1630678981266,2101
1630678981270,2103
1630678981274,2103
1630678981278,2103
1630678981282,2103
1630678981286,2102
1630678981290,2102
1630678981294,2101
1630678981298,2100
1630678981302,2098
1630678981306,2095
1630678981310,2092
1630678981314,2088
1630678981318,2084
1630678981322,2081
1630678981326,2077
1630678981330,2075
1630678981334,2072
1630678981338,2071
1630678981342,2070
1630678981346,2069
1630678981350,2069
1630678981354,2069
1630678981358,2068
1630678981362,2067
1630678981366,2067
1630678981370,2066
1630678981374,2066
1630678981378,2066
1630678981382,2067
1630678981386,2067
1630678981390,2067
1630678981394,2067
1630678981398,2066
1630678981402,2065
1630678981406,2065
1630678981410,2066
1630678981414,2066
1630678981418,2066
1630678981422,2067
1630678981426,2067
1630678981430,2068
1630678981434,2068
1630678981438,2067
1630678981442,2066
1630678981446,2066
1630678981450,2066
1630678981454,2066
1630678981458,2066
1630678981462,2066
1630678981466,2067
1630678981470,2067
1630678981474,2067
1630678981478,2066
1630678981482,2066
1630678981486,2065
1630678981490,2063
1630678981494,2063
1630678981498,2063
1630678981502,2063
1630678981506,2064
1630678981510,2064
1630678981514,2064
1630678981518,2063
1630678981522,2062
1630678981526,2062
1630678981530,2061
1630678981534,2062
1630678981538,2063
1630678981542,2063
1630678981546,2063
1630678981550,2062
1630678981554,2062
1630678981558,2061
1630678981562,2060
1630678981566,2060
1630678981570,2060
1630678981574,2060
1630678981578,2060
1630678981582,2060
1630678981586,2060
1630678981590,2060
1630678981594,2061
1630678981598,2061
1630678981602,2061
1630678981606,2061
1630678981610,2061
1630678981614,2061
1630678981618,2061
1630678981622,2062
1630678981626,2061
1630678981630,2061
1630678981634,2061
1630678981638,2061
1630678981642,2061
1630678981646,2061
1630678981650,2061
1630678981654,2061
1630678981658,2061
1630678981662,2061
1630678981666,2062
1630678981670,2062
1630678981674,2062
1630678981678,2061
1630678981682,2061
1630678981686,2060
1630678981690,2060
1630678981694,2060
1630678981698,2061
1630678981702,2061
1630678981706,2061
1630678981710,2060
1630678981714,2060
1630678981718,2060
1630678981722,2059
1630678981726,2059
1630678981730,2059
1630678981734,2059
1630678981738,2060
1630678981742,2060
1630678981746,2060
1630678981750,2060
1630678981754,2059
1630678981758,2058
1630678981762,2058
1630678981766,2058
1630678981770,2058
1630678981774,2059
1630678981778,2059
1630678981782,2058
1630678981786,2058
1630678981790,2058
1630678981794,2058
1630678981798,2058
1630678981802,2057
1630678981806,2055
1630678981810,2053
1630678981814,2053
1630678981818,2054
1630678981822,2055
1630678981826,2057
1630678981830,2059
1630678981834,2060
1630678981838,2061
1630678981842,2062
1630678981846,2063
1630678981850,2063
1630678981854,2063
1630678981858,2062
1630678981862,2061
1630678981866,2059
1630678981870,2058
1630678981874,2057
1630678981878,2056
1630678981882,2056
1630678981886,2057
1630678981890,2058
1630678981894,2060
1630678981898,2060
1630678981902,2056
1630678981906,2049
1630678981910,2040
1630678981914,2031
1630678981918,2028
1630678981922,2036
1630678981926,2056
1630678981930,2089
1630678981934,2127
1630678981938,2160
1630678981942,2177
1630678981946,2173
1630678981950,2150
1630678981954,2118
1630678981958,2088
1630678981962,2067
1630678981966,2058
1630678981970,2054
1630678981974,2053
1630678981978,2052
1630678981982,2050
1630678981986,2048
1630678981990,2048
1630678981994,2048
1630678981998,2047
1630678982002,2046
1630678982006,2046
1630678982010,2047
1630678982014,2048
1630678982018,2048
1630678982022,2048
1630678982026,2049
1630678982030,2049
1630678982034,2049
1630678982038,2050
1630678982042,2050
1630678982046,2051
1630678982050,2052
1630678982054,2053
1630678982058,2054
1630678982062,2055
1630678982066,2056
1630678982070,2057
1630678982074,2058
1630678982078,2059
1630678982082,2060
1630678982086,2061
1630678982090,2062
1630678982094,2065
1630678982098,2068
1630678982102,2071
1630678982106,2074
1630678982110,2076
1630678982114,2078
1630678982118,2079
1630678982122,2081
1630678982126,2082
1630678982130,2082
1630678982134,2083
1630678982138,2084
1630678982142,2083
1630678982146,2083
1630678982150,2081
1630678982154,2078
1630678982158,2074
1630678982162,2070
1630678982166,2065
1630678982170,2061
1630678982174,2057
1630678982178,2054
1630678982182,2052
1630678982186,2049
1630678982190,2047
1630678982194,2044
1630678982198,2042
1630678982202,2040
1630678982206,2039
1630678982210,2038
1630678982214,2039
1630678982218,2039
1630678982222,2039
1630678982226,2039
1630678982230,2038
1630678982234,2037
1630678982238,2037
1630678982242,2037
1630678982246,2037
1630678982250,2037
1630678982254,2037
1630678982258,2037
1630678982262,2036
1630678982266,2036
1630678982270,2036
1630678982274,2036
1630678982278,2037
1630678982282,2037
1630678982286,2037
1630678982290,2037
1630678982294,2037
1630678982298,2037
1630678982302,2038
1630678982306,2038
1630678982310,2038
1630678982314,2038
1630678982318,2038
1630678982322,2038
1630678982326,2038
1630678982330,2038
1630678982334,2039
1630678982338,2039
1630678982342,2039
1630678982346,2039
1630678982350,2039
1630678982354,2039
1630678982358,2039
1630678982362,2038
1630678982366,2038
1630678982370,2038
1630678982374,2039
1630678982378,2039
1630678982382,2040
1630678982386,2040
1630678982390,2040
1630678982394,2039
1630678982398,2038
1630678982402,2037
1630678982406,2037
1630678982410,2037
1630678982414,2038
1630678982418,2039
1630678982422,2039
1630678982426,2039
1630678982430,2039
1630678982434,2039
1630678982438,2038
1630678982442,2038
1630678982446,2038
1630678982450,2037
1630678982454,2038
1630678982458,2038
1630678982462,2039
1630678982466,2039
1630678982470,2039
1630678982474,2039
1630678982478,2038
1630678982482,2038
1630678982486,2037
1630678982490,2037
1630678982494,2037
1630678982498,2038
1630678982502,2038
1630678982506,2038
1630678982510,2037
1630678982514,2037
1630678982518,2037
1630678982522,2037
1630678982526,2037
1630678982530,2037
1630678982534,2038
1630678982538,2038
1630678982542,2039
1630678982546,2039
1630678982550,2039
1630678982554,2039
1630678982558,2039
1630678982562,2039
1630678982566,2039
1630678982570,2039
1630678982574,2039
1630678982578,2039
1630678982582,2038
1630678982586,2038
1630678982590,2037
1630678982594,2037
1630678982598,2038
1630678982602,2039
1630678982606,2041
1630678982610,2042
1630678982614,2044
1630678982618,2045
1630678982622,2047
1630678982626,2048
1630678982630,2048
1630678982634,2047
1630678982638,2046
1630678982642,2045
1630678982646,2044
1630678982650,2043
1630678982654,2042
1630678982658,2042
1630678982662,2041
1630678982666,2041
1630678982670,2043
1630678982674,2044
1630678982678,2044
1630678982682,2039
1630678982686,2030
1630678982690,2019
1630678982694,2011
1630678982698,2011
1630678982702,2024
1630678982706,2050
1630678982710,2088
1630678982714,2129
1630678982718,2161
1630678982722,2175
1630678982726,2167
1630678982730,2142
1630678982734,2110
1630678982738,2081
1630678982742,2063
1630678982746,2054
1630678982750,2051
1630678982754,2048
1630678982758,2046
1630678982762,2042
1630678982766,2040
1630678982770,2040
1630678982774,2040
1630678982778,2040
1630678982782,2040
1630678982786,2040
1630678982790,2040
1630678982794,2040
1630678982798,2040
1630678982802,2040
1630678982806,2040
1630678982810,2041
1630678982814,2042
1630678982818,2043
1630678982822,2044
1630678982826,2045
1630678982830,2047
1630678982834,2048
1630678982838,2048
1630678982842,2048
1630678982846,2048
1630678982850,2048
1630678982854,2050
1630678982858,2053
1630678982862,2055
1630678982866,2057
1630678982870,2058
1630678982874,2060
1630678982878,2062
1630678982882,2064
1630678982886,2067
1630678982890,2069
1630678982894,2072
1630678982898,2075
1630678982902,2077
1630678982906,2078
1630678982910,2079
1630678982914,2079
1630678982918,2078
1630678982922,2078
1630678982926,2077
1630678982930,2076
1630678982934,2074
1630678982938,2071
1630678982942,2067
1630678982946,2063
1630678982950,2059
1630678982954,2055
1630678982958,2051
1630678982962,2048
1630678982966,2046
1630678982970,2043
1630678982974,2042
1630678982978,2041
1630678982982,2041
1630678982986,2040
1630678982990,2039
1630678982994,2039
1630678982998,2038
1630678983002,2037
1630678983006,2037
1630678983010,2038
1630678983014,2039
1630678983018,2040
1630678983022,2040
1630678983026,2040
1630678983030,2040
1630678983034,2040
1630678983038,2039
1630678983042,2039
1630678983046,2039
1630678983050,2039
1630678983054,2040
1630678983058,2040
1630678983062,2041
1630678983066,2041
1630678983070,2041
1630678983074,2041
1630678983078,2041
1630678983082,2041
1630678983086,2041
1630678983090,2042
1630678983094,2042
1630678983098,2043
1630678983102,2043
1630678983106,2043
1630678983110,2043
1630678983114,2042
1630678983118,2042
1630678983122,2042
1630678983126,2042
1630678983130,2042
1630678983134,2043
1630678983138,2044
1630678983142,2044
1630678983146,2044
1630678983150,2045
1630678983154,2045
1630678983158,2045
1630678983162,2045
1630678983166,2045
1630678983170,2045
1630678983174,2045
1630678983178,2045
1630678983182,2046
1630678983186,2046
1630678983190,2046
1630678983194,2046
1630678983198,2045
1630678983202,2045
1630678983206,2045
1630678983210,2045
1630678983214,2046
1630678983218,2046
1630678983222,2047
1630678983226,2047
1630678983230,2047
1630678983234,2047
1630678983238,2046
1630678983242,2046
1630678983246,2046
1630678983250,2046
1630678983254,2047
1630678983258,2047
1630678983262,2048
1630678983266,2048
1630678983270,2048
1630678983274,2048
1630678983278,2048
1630678983282,2047
1630678983286,2047
1630678983290,2048
1630678983294,2048
1630678983298,2048
1630678983302,2048
1630678983306,2048
1630678983310,2048
1630678983314,2048
1630678983318,2048
1630678983322,2048
1630678983326,2048
1630678983330,2048
1630678983334,2048
1630678983338,2048
1630678983342,2048
1630678983346,2048
1630678983350,2048
1630678983354,2048
1630678983358,2047
1630678983362,2046
1630678983366,2046
1630678983370,2046
1630678983374,2047
1630678983378,2049
1630678983382,2051
1630678983386,2053
1630678983390,2054
1630678983394,2055
1630678983398,2055
1630678983402,2055
1630678983406,2056
1630678983410,2055
1630678983414,2055
1630678983418,2054
1630678983422,2053
1630678983426,2051
1630678983430,2050
1630678983434,2049
1630678983438,2049
1630678983442,2049
1630678983446,2050
1630678983450,2052
1630678983454,2050
1630678983458,2046
1630678983462,2036
1630678983466,2025
1630678983470,2017
1630678983474,2019
1630678983478,2034
1630678983482,2062
1630678983486,2102
1630678983490,2143
1630678983494,2175
1630678983498,2188
1630678983502,2181
1630678983506,2156
1630678983510,2125
1630678983514,2096
1630678983518,2076
1630678983522,2064
1630678983526,2058
1630678983530,2054
1630678983534,2051
1630678983538,2048
1630678983542,2047
1630678983546,2047
1630678983550,2046
1630678983554,2045
1630678983558,2044
1630678983562,2043
1630678983566,2044
1630678983570,2044
1630678983574,2045
1630678983578,2046
1630678983582,2046
1630678983586,2046
1630678983590,2047
1630678983594,2047
1630678983598,2047
1630678983602,2047
1630678983606,2048
1630678983610,2048
1630678983614,2049
1630678983618,2050
1630678983622,2052
1630678983626,2053
1630678983630,2054
1630678983634,2055
1630678983638,2055
1630678983642,2057
1630678983646,2058
1630678983650,2060
1630678983654,2062
1630678983658,2065
1630678983662,2067
1630678983666,2070
1630678983670,2073
1630678983674,2075
1630678983678,2076
1630678983682,2077
1630678983686,2078
1630678983690,2079
1630678983694,2079
1630678983698,2080
1630678983702,2079
1630678983706,2078
1630678983710,2075
1630678983714,2072
1630678983718,2067
1630678983722,2063
1630678983726,2059
1630678983730,2056
1630678983734,2053
1630678983738,2051
1630678983742,2049
1630678983746,2048
1630678983750,2046
1630678983754,2044
1630678983758,2043
1630678983762,2042
1630678983766,2041
1630678983770,2041
1630678983774,2042
1630678983778,2042
1630678983782,2042
1630678983786,2043
1630678983790,2043
1630678983794,2043
1630678983798,2042
1630678983802,2042
1630678983806,2043
1630678983810,2043
1630678983814,2044
1630678983818,2044
1630678983822,2044
1630678983826,2045
1630678983830,2044
1630678983834,2044
1630678983838,2044
1630678983842,2044
1630678983846,2044
1630678983850,2044
1630678983854,2045
1630678983858,2045
1630678983862,2046
1630678983866,2046
1630678983870,2046
1630678983874,2046
1630678983878,2046
1630678983882,2046
1630678983886,2046
1630678983890,2046
1630678983894,2046
1630678983898,2046
1630678983902,2047
1630678983906,2047
1630678983910,2047
1630678983914,2047
1630678983918,2046
1630678983922,2046
1630678983926,2046
1630678983930,2046
1630678983934,2046
1630678983938,2046
1630678983942,2047
1630678983946,2047
1630678983950,2048
1630678983954,2048
1630678983958,2048
1630678983962,2048
1630678983966,2047
1630678983970,2048
1630678983974,2048
1630678983978,2048
1630678983982,2048
1630678983986,2048
1630678983990,2048
1630678983994,2048
1630678983998,2048
1630678984002,2047
1630678984006,2047
1630678984010,2048
1630678984014,2048
1630678984018,2048
1630678984022,2048
1630678984026,2049
1630678984030,2048
1630678984034,2048
1630678984038,2048
1630678984042,2048
1630678984046,2048
1630678984050,2049
1630678984054,2049
1630678984058,2049
1630678984062,2049
1630678984066,2049
1630678984070,2049
1630678984074,2049
1630678984078,2050
1630678984082,2050
1630678984086,2050
1630678984090,2050
1630678984094,2051
1630678984098,2051
1630678984102,2051
1630678984106,2051
1630678984110,2051
1630678984114,2050
1630678984118,2050
1630678984122,2050
1630678984126,2050
1630678984130,2050
1630678984134,2051
1630678984138,2051
1630678984142,2051
1630678984146,2052
1630678984150,2051
1630678984154,2050
1630678984158,2048
1630678984162,2048
1630678984166,2048
1630678984170,2049
1630678984174,2051
1630678984178,2054
1630678984182,2056
1630678984186,2057
1630678984190,2058
1630678984194,2058
1630678984198,2058
1630678984202,2057
1630678984206,2055
1630678984210,2054
1630678984214,2053
1630678984218,2052
1630678984222,2052
1630678984226,2051
1630678984230,2051
1630678984234,2051
1630678984238,2051
1630678984242,2052
1630678984246,2052
1630678984250,2049
1630678984254,2043
1630678984258,2034
1630678984262,2026
1630678984266,2023
1630678984270,2031
1630678984274,2050
1630678984278,2083
1630678984282,2122
1630678984286,2157
1630678984290,2178
1630678984294,2179
1630678984298,2160
1630678984302,2131
1630678984306,2101
1630678984310,2079
1630678984314,2066
1630678984318,2059
1630678984322,2056
1630678984326,2052
1630678984330,2049
1630678984334,2048
1630678984338,2047
1630678984342,2047
1630678984346,2046
1630678984350,2046
1630678984354,2045
1630678984358,2045
1630678984362,2046
1630678984366,2047
1630678984370,2047
1630678984374,2048
1630678984378,2048
1630678984382,2048
1630678984386,2049
1630678984390,2050
1630678984394,2051
1630678984398,2053
1630678984402,2053
1630678984406,2054
1630678984410,2055
1630678984414,2056
1630678984418,2058
1630678984422,2059
1630678984426,2061
1630678984430,2062
1630678984434,2064
1630678984438,2065
1630678984442,2067
1630678984446,2069
1630678984450,2071
1630678984454,2074
1630678984458,2077
1630678984462,2079
1630678984466,2081
1630678984470,2083
1630678984474,2084
1630678984478,2084
1630678984482,2085
1630678984486,2085
1630678984490,2084
1630678984494,2084
1630678984498,2084
1630678984502,2082
1630678984506,2080
1630678984510,2076
1630678984514,2072
1630678984518,2067
1630678984522,2062
1630678984526,2058
1630678984530,2055
1630678984534,2052
1630678984538,2050
1630678984542,2048
1630678984546,2048
1630678984550,2047
1630678984554,2046
1630678984558,2044
1630678984562,2044
1630678984566,2043
1630678984570,2043
1630678984574,2044
1630678984578,2044
1630678984582,2045
1630678984586,2045
1630678984590,2045
1630678984594,2045
1630678984598,2044
1630678984602,2044
1630678984606,2044
1630678984610,2044
1630678984614,2044
1630678984618,2045
1630678984622,2045
1630678984626,2045
1630678984630,2046
1630678984634,2046
1630678984638,2045
1630678984642,2045
1630678984646,2045
1630678984650,2045
1630678984654,2046
1630678984658,2046
1630678984662,2046
1630678984666,2047
1630678984670,2047
1630678984674,2048
1630678984678,2048
1630678984682,2048
1630678984686,2047
1630678984690,2047
1630678984694,2047
1630678984698,2047
1630678984702,2048
1630678984706,2048
1630678984710,2048
1630678984714,2048
1630678984718,2048
1630678984722,2048
1630678984726,2048
1630678984730,2048
1630678984734,2048
1630678984738,2048
1630678984742,2048
1630678984746,2048
1630678984750,2048
1630678984754,2048
1630678984758,2048
1630678984762,2048
1630678984766,2048
1630678984770,2048
1630678984774,2048
1630678984778,2049
1630678984782,2049
1630678984786,2050
1630678984790,2050
1630678984794,2049
1630678984798,2048
1630678984802,2048
1630678984806,2048
1630678984810,2048
1630678984814,2049
1630678984818,2050
1630678984822,2051
1630678984826,2051
1630678984830,2050
1630678984834,2050
1630678984838,2050
1630678984842,2050
1630678984846,2051
1630678984850,2051
1630678984854,2051
1630678984858,2051
1630678984862,2052
1630678984866,2052
1630678984870,2052
1630678984874,2051
1630678984878,2051
1630678984882,2050
1630678984886,2050
1630678984890,2051
1630678984894,2051
1630678984898,2051
1630678984902,2051
1630678984906,2050
1630678984910,2049
1630678984914,2050
1630678984918,2051
1630678984922,2052
1630678984926,2054
1630678984930,2056
1630678984934,2057
1630678984938,2059
1630678984942,2060
1630678984946,2060
1630678984950,2060
1630678984954,2059
1630678984958,2057
1630678984962,2056
1630678984966,2055
1630678984970,2054
1630678984974,2054
1630678984978,2054
1630678984982,2054
1630678984986,2056
1630678984990,2058
1630678984994,2057
1630678984998,2052
1630678985002,2044
1630678985006,2031
1630678985010,2022
1630678985014,2021
1630678985018,2034
1630678985022,2060
1630678985026,2100
1630678985030,2144
1630678985034,2180
1630678985038,2198
1630678985042,2194
1630678985046,2171
1630678985050,2139
1630678985054,2108
1630678985058,2085
1630678985062,2072
1630678985066,2066
1630678985070,2061
1630678985074,2057
1630678985078,2053
1630678985082,2050
1630678985086,2049
1630678985090,2049
1630678985094,2049
1630678985098,2049
1630678985102,2049
1630678985106,2049
1630678985110,2049
1630678985114,2049
1630678985118,2048
1630678985122,2048
1630678985126,2049
1630678985130,2050
1630678985134,2051
1630678985138,2052
1630678985142,2053
1630678985146,2054
1630678985150,2054
1630678985154,2054
1630678985158,2055
1630678985162,2055
1630678985166,2056
1630678985170,2057
1630678985174,2059
1630678985178,2061
1630678985182,2063
1630678985186,2064
1630678985190,2066
1630678985194,2068
1630678985198,2070
1630678985202,2072
1630678985206,2074
1630678985210,2076
1630678985214,2079
1630678985218,2081
1630678985222,2083
1630678985226,2084
1630678985230,2085
1630678985234,2085
1630678985238,2085
1630678985242,2084
1630678985246,2083
1630678985250,2080
1630678985254,2078
1630678985258,2074
1630678985262,2070
1630678985266,2066
1630678985270,2062
1630678985274,2058
1630678985278,2055
1630678985282,2052
1630678985286,2050
1630678985290,2049
1630678985294,2048
1630678985298,2048
1630678985302,2047
1630678985306,2047
1630678985310,2046
1630678985314,2046
1630678985318,2045
1630678985322,2045
1630678985326,2045
1630678985330,2046
1630678985334,2046
1630678985338,2047
1630678985342,2047
1630678985346,2047
1630678985350,2047
1630678985354,2047
1630678985358,2047
1630678985362,2047
1630678985366,2047
1630678985370,2047
1630678985374,2047
1630678985378,2047
1630678985382,2047
1630678985386,2048
1630678985390,2048
1630678985394,2048
1630678985398,2048
1630678985402,2047
1630678985406,2047
1630678985410,2047
1630678985414,2048
1630678985418,2048
1630678985422,2048
1630678985426,2048
1630678985430,2048
1630678985434,2048
1630678985438,2048
1630678985442,2048
1630678985446,2048
1630678985450,2048
1630678985454,2048
1630678985458,2048
1630678985462,2049
1630678985466,2050
1630678985470,2050
1630678985474,2050
1630678985478,2049
1630678985482,2049
1630678985486,2048
1630678985490,2048
1630678985494,2048
1630678985498,2050
1630678985502,2050
1630678985506,2051
1630678985510,2050
1630678985514,2050
1630678985518,2049
1630678985522,2048
1630678985526,2048
1630678985530,2048
1630678985534,2049
1630678985538,2049
1630678985542,2050
1630678985546,2050
1630678985550,2050
1630678985554,2050
1630678985558,2049
1630678985562,2049
1630678985566,2049
1630678985570,2049
1630678985574,2049
1630678985578,2050
1630678985582,2050
1630678985586,2051
1630678985590,2050
1630678985594,2050
1630678985598,2049
1630678985602,2049
1630678985606,2049
1630678985610,2049
1630678985614,2050
1630678985618,2050
1630678985622,2051
1630678985626,2051
1630678985630,2051
1630678985634,2050
1630678985638,2050
1630678985642,2049
1630678985646,2049
1630678985650,2049
1630678985654,2049
1630678985658,2049
1630678985662,2048
1630678985666,2048
1630678985670,2048
1630678985674,2048
1630678985678,2050
1630678985682,2052
1630678985686,2054
1630678985690,2056
1630678985694,2057
1630678985698,2058
1630678985702,2059
1630678985706,2059
1630678985710,2058
1630678985714,2057
1630678985718,2055
1630678985722,2054
1630678985726,2052
1630678985730,2052
1630678985734,2052
1630678985738,2053
1630678985742,2055
1630678985746,2056
1630678985750,2055
1630678985754,2049
1630678985758,2040
1630678985762,2027
1630678985766,2019
1630678985770,2020
1630678985774,2034
1630678985778,2062
1630678985782,2102
1630678985786,2144
1630678985790,2179
1630678985794,2196
1630678985798,2193
1630678985802,2171
1630678985806,2140
1630678985810,2109
1630678985814,2086
1630678985818,2071
1630678985822,2063
1630678985826,2058
1630678985830,2053
1630678985834,2049
1630678985838,2048
1630678985842,2047
1630678985846,2047
1630678985850,2047
1630678985854,2047
1630678985858,2047
1630678985862,2047
1630678985866,2047
1630678985870,2047
1630678985874,2047
1630678985878,2047
1630678985882,2047
1630678985886,2047
1630678985890,2048
1630678985894,2048
1630678985898,2049
1630678985902,2051
1630678985906,2052
1630678985910,2053
1630678985914,2053
1630678985918,2053
1630678985922,2054
1630678985926,2054
1630678985930,2056
1630678985934,2058
1630678985938,2060
1630678985942,2062
1630678985946,2063
1630678985950,2065
1630678985954,2067
1630678985958,2068
1630678985962,2070
1630678985966,2072
1630678985970,2075
1630678985974,2077
1630678985978,2078
1630678985982,2080
1630678985986,2080
1630678985990,2080
1630678985994,2080
1630678985998,2079
1630678986002,2077
1630678986006,2075
1630678986010,2072
1630678986014,2069
1630678986018,2066
1630678986022,2063
1630678986026,2059
1630678986030,2056
1630678986034,2052
1630678986038,2049
1630678986042,2048
1630678986046,2046
1630678986050,2045
1630678986054,2044
1630678986058,2044
1630678986062,2043
1630678986066,2043
1630678986070,2042
1630678986074,2042
1630678986078,2041
1630678986082,2041
1630678986086,2042
1630678986090,2042
1630678986094,2043
1630678986098,2043
1630678986102,2043
1630678986106,2043
1630678986110,2043
1630678986114,2043
1630678986118,2042
1630678986122,2043
1630678986126,2043
1630678986130,2043
1630678986134,2043
1630678986138,2044
1630678986142,2044
1630678986146,2044
1630678986150,2044
1630678986154,2044
1630678986158,2043
1630678986162,2044
1630678986166,2044
1630678986170,2044
1630678986174,2045
1630678986178,2045
1630678986182,2045
1630678986186,2045
1630678986190,2045
1630678986194,2046
1630678986198,2045
1630678986202,2045
1630678986206,2045
1630678986210,2045
1630678986214,2045
1630678986218,2045
1630678986222,2046
1630678986226,2046
1630678986230,2046
1630678986234,2046
1630678986238,2045
1630678986242,2045
1630678986246,2045
1630678986250,2045
1630678986254,2045
1630678986258,2046
1630678986262,2046
1630678986266,2046
1630678986270,2046
1630678986274,2046
1630678986278,2046
1630678986282,2045
1630678986286,2045
1630678986290,2045
1630678986294,2046
1630678986298,2046
1630678986302,2047
1630678986306,2047
1630678986310,2047
1630678986314,2047
1630678986318,2047
1630678986322,2047
1630678986326,2047
1630678986330,2047
1630678986334,2048
1630678986338,2048
1630678986342,2048
1630678986346,2048
1630678986350,2048
1630678986354,2048
1630678986358,2048
1630678986362,2048
1630678986366,2048
1630678986370,2048
1630678986374,2048
1630678986378,2048
1630678986382,2049
1630678986386,2049
1630678986390,2049
1630678986394,2048
1630678986398,2048
1630678986402,2048
1630678986406,2047
1630678986410,2047
1630678986414,2047
1630678986418,2046
1630678986422,2046
1630678986426,2047
1630678986430,2048
1630678986434,2048
1630678986438,2050
1630678986442,2052
1630678986446,2053
1630678986450,2054
1630678986454,2055
1630678986458,2056
1630678986462,2055
1630678986466,2054
1630678986470,2052
1630678986474,2050
1630678986478,2048
1630678986482,2048
1630678986486,2047
1630678986490,2047
1630678986494,2048
1630678986498,2051
1630678986502,2052
1630678986506,2050
1630678986510,2044
1630678986514,2033
1630678986518,2022
1630678986522,2017
1630678986526,2023
1630678986530,2042
1630678986534,2072
1630678986538,2112
1630678986542,2150
1630678986546,2176
1630678986550,2184
1630678986554,2172
1630678986558,2146
1630678986562,2116
1630678986566,2090
1630678986570,2072
1630678986574,2062
1630678986578,2056
1630678986582,2053
1630678986586,2049
1630678986590,2047
1630678986594,2045
1630678986598,2044
1630678986602,2043
1630678986606,2042
1630678986610,2042
1630678986614,2042
1630678986618,2043
1630678986622,2043
1630678986626,2043
1630678986630,2044
1630678986634,2044
1630678986638,2044
1630678986642,2045
1630678986646,2045
1630678986650,2046
1630678986654,2047
1630678986658,2048
1630678986662,2048
1630678986666,2049
1630678986670,2050
1630678986674,2051
1630678986678,2051
1630678986682,2052
1630678986686,2053
1630678986690,2055
1630678986694,2057
1630678986698,2059
1630678986702,2061
1630678986706,2063
1630678986710,2065
1630678986714,2067
1630678986718,2068
1630678986722,2070
1630678986726,2072
1630678986730,2073
1630678986734,2075
1630678986738,2076
1630678986742,2076
1630678986746,2076
1630678986750,2076
1630678986754,2075
1630678986758,2073
1630678986762,2071
1630678986766,2068
1630678986770,2064
1630678986774,2061
1630678986778,2057
1630678986782,2054
1630678986786,2051
1630678986790,2048
1630678986794,2047
1630678986798,2045
1630678986802,2043
1630678986806,2041
1630678986810,2040
1630678986814,2040
1630678986818,2040
1630678986822,2040
1630678986826,2040
1630678986830,2040
1630678986834,2040
1630678986838,2039
1630678986842,2039
1630678986846,2039
1630678986850,2039
1630678986854,2040
1630678986858,2040
1630678986862,2041
1630678986866,2041
1630678986870,2041
1630678986874,2041
1630678986878,2041
1630678986882,2041
1630678986886,2040
1630678986890,2040
1630678986894,2041
1630678986898,2041
1630678986902,2042
1630678986906,2042
1630678986910,2042
1630678986914,2042
1630678986918,2042
1630678986922,2042
1630678986926,2042
1630678986930,2042
1630678986934,2043
1630678986938,2043
1630678986942,2043
1630678986946,2043
1630678986950,2043
1630678986954,2043
1630678986958,2043
1630678986962,2043
1630678986966,2043
1630678986970,2043
1630678986974,2044
1630678986978,2044
1630678986982,2045
1630678986986,2045
1630678986990,2045
1630678986994,2045
1630678986998,2045
1630678987002,2045
1630678987006,2045
1630678987010,2045
1630678987014,2045
1630678987018,2045
1630678987022,2046
1630678987026,2047
1630678987030,2047
1630678987034,2046
1630678987038,2046
1630678987042,2046
1630678987046,2046
1630678987050,2046
1630678987054,2047
1630678987058,2047
1630678987062,2047
1630678987066,2047
1630678987070,2047
1630678987074,2047
1630678987078,2047
1630678987082,2046
1630678987086,2046
1630678987090,2047
1630678987094,2048
1630678987098,2048
1630678987102,2048
1630678987106,2048
1630678987110,2048
1630678987114,2047
1630678987118,2047
1630678987122,2048
1630678987126,2048
1630678987130,2049
1630678987134,2049
1630678987138,2049
1630678987142,2049
1630678987146,2049
1630678987150,2049
1630678987154,2048
1630678987158,2048
1630678987162,2048
1630678987166,2047
1630678987170,2047
1630678987174,2048
1630678987178,2049
1630678987182,2051
1630678987186,2052
1630678987190,2054
1630678987194,2055
1630678987198,2055
1630678987202,2056
1630678987206,2056
1630678987210,2056
1630678987214,2056
1630678987218,2054
1630678987222,2053
1630678987226,2052
1630678987230,2051
1630678987234,2050
1630678987238,2050
1630678987242,2050
1630678987246,2052
1630678987250,2053
1630678987254,2052
1630678987258,2048
1630678987262,2040
1630678987266,2029
1630678987270,2023
1630678987274,2025
1630678987278,2039
1630678987282,2065
1630678987286,2101
1630678987290,2138
1630678987294,2166
1630678987298,2179
1630678987302,2173
1630678987306,2152
1630678987310,2124
1630678987314,2098
1630678987318,2078
1630678987322,2066
1630678987326,2059
1630678987330,2055
1630678987334,2052
1630678987338,2049
1630678987342,2049
1630678987346,2048
1630678987350,2048
1630678987354,2048
1630678987358,2047
1630678987362,2046
1630678987366,2046
1630678987370,2046
1630678987374,2046
1630678987378,2047
1630678987382,2048
1630678987386,2048
1630678987390,2048
1630678987394,2049
1630678987398,2049
1630678987402,2049
1630678987406,2050
1630678987410,2050
1630678987414,2051
1630678987418,2053
1630678987422,2054
1630678987426,2055
1630678987430,2056
1630678987434,2057
1630678987438,2058
1630678987442,2059
1630678987446,2061
1630678987450,2063
1630678987454,2065
1630678987458,2068
1630678987462,2070
1630678987466,2073
1630678987470,2074
1630678987474,2075
1630678987478,2076
1630678987482,2077
1630678987486,2078
1630678987490,2078
1630678987494,2079
1630678987498,2079
1630678987502,2078
1630678987506,2077
1630678987510,2075
1630678987514,2072
1630678987518,2068
1630678987522,2064
1630678987526,2061
1630678987530,2057
1630678987534,2055
1630678987538,2052
1630678987542,2050
1630678987546,2048
1630678987550,2046
1630678987554,2044
1630678987558,2043
1630678987562,2042
1630678987566,2041
1630678987570,2040
1630678987574,2040
1630678987578,2041
1630678987582,2041
1630678987586,2042
1630678987590,2042
1630678987594,2042
1630678987598,2041
1630678987602,2040
1630678987606,2040
1630678987610,2040
1630678987614,2040
1630678987618,2041
1630678987622,2042
1630678987626,2043
1630678987630,2043
1630678987634,2042
1630678987638,2042
1630678987642,2041
1630678987646,2041
1630678987650,2041
1630678987654,2041
1630678987658,2042
1630678987662,2042
1630678987666,2042
1630678987670,2042
1630678987674,2042
1630678987678,2041
1630678987682,2041
1630678987686,2041
1630678987690,2041
1630678987694,2041
1630678987698,2042
1630678987702,2042
1630678987706,2042
1630678987710,2043
1630678987714,2043
1630678987718,2043
1630678987722,2042
1630678987726,2042
1630678987730,2042
1630678987734,2042
1630678987738,2043
1630678987742,2044
1630678987746,2044
1630678987750,2044
1630678987754,2044
1630678987758,2044
1630678987762,2043
1630678987766,2043
1630678987770,2043
1630678987774,2043
1630678987778,2043
1630678987782,2043
1630678987786,2043
1630678987790,2043
1630678987794,2043
1630678987798,2042
1630678987802,2042
1630678987806,2042
1630678987810,2042
1630678987814,2043
1630678987818,2043
1630678987822,2044
1630678987826,2043
1630678987830,2043
1630678987834,2042
1630678987838,2042
1630678987842,2042
1630678987846,2042
1630678987850,2042
1630678987854,2042
1630678987858,2043
1630678987862,2043
1630678987866,2043
1630678987870,2043
1630678987874,2043
1630678987878,2042
1630678987882,2042
1630678987886,2042
1630678987890,2041
1630678987894,2041
1630678987898,2042
1630678987902,2043
1630678987906,2045
1630678987910,2046
1630678987914,2047
1630678987918,2048
1630678987922,2048
1630678987926,2049
1630678987930,2049
1630678987934,2050
1630678987938,2049
1630678987942,2048
1630678987946,2047
1630678987950,2046
1630678987954,2045
1630678987958,2044
1630678987962,2044
1630678987966,2046
1630678987970,2048
1630678987974,2048
1630678987978,2046
1630678987982,2039
1630678987986,2029
1630678987990,2021
1630678987994,2018
1630678987998,2025
1630678988002,2046
1630678988006,2076
1630678988010,2113
1630678988014,2146
1630678988018,2164
1630678988022,2161
1630678988026,2140
1630678988030,2108
1630678988034,2078
1630678988038,2058
1630678988042,2049
1630678988046,2048
1630678988050,2048
1630678988054,2048
1630678988058,2048
1630678988062,2046
1630678988066,2045
1630678988070,2045
1630678988074,2044
1630678988078,2042
1630678988082,2041
1630678988086,2041
1630678988090,2042
1630678988094,2043
1630678988098,2045
1630678988102,2046
1630678988106,2047
1630678988110,2047
1630678988114,2047
1630678988118,2048
1630678988122,2048
1630678988126,2049
1630678988130,2050
1630678988134,2051
1630678988138,2052
1630678988142,2053
1630678988146,2054
1630678988150,2055
1630678988154,2056
1630678988158,2057
1630678988162,2059
1630678988166,2061
1630678988170,2063
1630678988174,2066
1630678988178,2069
1630678988182,2071
1630678988186,2073
1630678988190,2075
1630678988194,2077
1630678988198,2079
1630678988202,2081
1630678988206,2082
1630678988210,2083
1630678988214,2083
1630678988218,2083
1630678988222,2082
1630678988226,2080
1630678988230,2078
1630678988234,2075
1630678988238,2071
1630678988242,2066
1630678988246,2062
1630678988250,2058
1630678988254,2055
1630678988258,2052
1630678988262,2049
1630678988266,2048
1630678988270,2046
1630678988274,2044
1630678988278,2043
1630678988282,2041
1630678988286,2040
1630678988290,2040
1630678988294,2040
1630678988298,2040
1630678988302,2040
1630678988306,2040
1630678988310,2039
1630678988314,2039
1630678988318,2039
1630678988322,2039
1630678988326,2039
1630678988330,2039
1630678988334,2040
1630678988338,2040
1630678988342,2040
1630678988346,2040
1630678988350,2040
1630678988354,2040
1630678988358,2040
1630678988362,2040
1630678988366,2041
1630678988370,2041
1630678988374,2041
1630678988378,2042
1630678988382,2043
1630678988386,2043
1630678988390,2043
1630678988394,2043
1630678988398,2043
1630678988402,2043
1630678988406,2044
1630678988410,2044
1630678988414,2045
1630678988418,2045
1630678988422,2045
1630678988426,2045
1630678988430,2046
1630678988434,2046
1630678988438,2046
1630678988442,2046
1630678988446,2046
1630678988450,2046
1630678988454,2047
1630678988458,2048
1630678988462,2048
1630678988466,2048
1630678988470,2048
1630678988474,2048
1630678988478,2047
1630678988482,2047
1630678988486,2047
1630678988490,2047
1630678988494,2048
1630678988498,2048
1630678988502,2049
1630678988506,2049
1630678988510,2048
1630678988514,2048
1630678988518,2047
1630678988522,2047
1630678988526,2048
1630678988530,2048
1630678988534,2048
1630678988538,2048
1630678988542,2048
1630678988546,2049
1630678988550,2049
1630678988554,2048
1630678988558,2047
1630678988562,2046
1630678988566,2046
1630678988570,2047
1630678988574,2048
1630678988578,2051
1630678988582,2054
1630678988586,2056
1630678988590,2057
1630678988594,2056
1630678988598,2055
1630678988602,2053
1630678988606,2051
1630678988610,2050
1630678988614,2049
1630678988618,2049
1630678988622,2050
1630678988626,2050
1630678988630,2051
1630678988634,2052
1630678988638,2053
1630678988642,2050
1630678988646,2044
1630678988650,2035
1630678988654,2026
1630678988658,2021
1630678988662,2026
1630678988666,2045
1630678988670,2074
1630678988674,2113
1630678988678,2150
1630678988682,2174
1630678988686,2176
1630678988690,2157
1630678988694,2126
1630678988698,2093
1630678988702,2070
1630678988706,2059
1630678988710,2055
1630678988714,2054
1630678988718,2053
1630678988722,2050
1630678988726,2048
1630678988730,2047
1630678988734,2047
1630678988738,2048
1630678988742,2047
1630678988746,2047
1630678988750,2047
1630678988754,2047
1630678988758,2047
1630678988762,2047
1630678988766,2048
1630678988770,2048
1630678988774,2049
1630678988778,2050
1630678988782,2051
1630678988786,2051
1630678988790,2052
1630678988794,2052
1630678988798,2052
1630678988802,2053
1630678988806,2054
1630678988810,2056
1630678988814,2057
1630678988818,2059
1630678988822,2061
1630678988826,2062
1630678988830,2064
1630678988834,2065
1630678988838,2067
1630678988842,2068
1630678988846,2071
1630678988850,2073
1630678988854,2076
1630678988858,2079
1630678988862,2081
1630678988866,2082
1630678988870,2083
1630678988874,2084
1630678988878,2085
1630678988882,2085
1630678988886,2084
1630678988890,2082
1630678988894,2080
1630678988898,2077
1630678988902,2074
1630678988906,2070
1630678988910,2065
1630678988914,2061
1630678988918,2057
1630678988922,2053
1630678988926,2050
1630678988930,2048
1630678988934,2046
1630678988938,2045
1630678988942,2045
1630678988946,2044
1630678988950,2043
1630678988954,2042
1630678988958,2041
1630678988962,2040
1630678988966,2040
1630678988970,2040
1630678988974,2041
1630678988978,2041
1630678988982,2041
1630678988986,2041
1630678988990,2041
1630678988994,2041
1630678988998,2041
1630678989002,2040
1630678989006,2040
1630678989010,2040
1630678989014,2041
1630678989018,2041
1630678989022,2041
1630678989026,2042
1630678989030,2042
1630678989034,2042
1630678989038,2042
1630678989042,2042
1630678989046,2042
1630678989050,2042
1630678989054,2043
1630678989058,2043
1630678989062,2044
1630678989066,2044
1630678989070,2044
1630678989074,2044
1630678989078,2044
1630678989082,2044
1630678989086,2044
1630678989090,2044
1630678989094,2045
1630678989098,2046
1630678989102,2046
1630678989106,2046
1630678989110,2045
1630678989114,2045
1630678989118,2044
1630678989122,2044
1630678989126,2045
1630678989130,2045
1630678989134,2045
1630678989138,2046
1630678989142,2046
1630678989146,2046
1630678989150,2046
1630678989154,2046
1630678989158,2045
1630678989162,2045
1630678989166,2045
1630678989170,2045
1630678989174,2046
1630678989178,2046
1630678989182,2046
1630678989186,2046
1630678989190,2046
1630678989194,2046
1630678989198,2044
1630678989202,2043
1630678989206,2042
1630678989210,2042
1630678989214,2044
1630678989218,2045
1630678989222,2048
1630678989226,2049
1630678989230,2050
1630678989234,2051
1630678989238,2051
1630678989242,2052
1630678989246,2052
1630678989250,2051
1630678989254,2051
1630678989258,2049
1630678989262,2049
1630678989266,2048
1630678989270,2048
1630678989274,2047
1630678989278,2047
1630678989282,2048
1630678989286,2049
1630678989290,2049
1630678989294,2046
1630678989298,2038
1630678989302,2027
1630678989306,2019
1630678989310,2017
1630678989314,2027
1630678989318,2050
1630678989322,2086
1630678989326,2127
1630678989330,2161
1630678989334,2179
1630678989338,2176
1630678989342,2155
1630678989346,2123
1630678989350,2093
1630678989354,2072
1630678989358,2061
1630678989362,2056
1630678989366,2052
1630678989370,2050
1630678989374,2048
1630678989378,2046
1630678989382,2045
1630678989386,2045
1630678989390,2044
1630678989394,2044
1630678989398,2043
1630678989402,2043
1630678989406,2043
1630678989410,2043
1630678989414,2044
1630678989418,2045
1630678989422,2046
1630678989426,2046
1630678989430,2046
1630678989434,2047
1630678989438,2047
1630678989442,2048
1630678989446,2048
1630678989450,2048
1630678989454,2050
1630678989458,2051
1630678989462,2052
1630678989466,2053
1630678989470,2054
1630678989474,2055
1630678989478,2057
1630678989482,2058
1630678989486,2060
1630678989490,2062
1630678989494,2065
1630678989498,2068
1630678989502,2070
1630678989506,2073
1630678989510,2074
1630678989514,2076
1630678989518,2076
1630678989522,2077
1630678989526,2077
1630678989530,2077
1630678989534,2077
1630678989538,2077
1630678989542,2075
1630678989546,2073
1630678989550,2070
1630678989554,2065
1630678989558,2061
1630678989562,2057
1630678989566,2052
1630678989570,2049
1630678989574,2047
1630678989578,2045
1630678989582,2043
1630678989586,2041
1630678989590,2040
1630678989594,2038
1630678989598,2037
1630678989602,2036
1630678989606,2036
1630678989610,2037
1630678989614,2037
1630678989618,2037
1630678989622,2037
1630678989626,2038
1630678989630,2038
1630678989634,2038
1630678989638,2037
1630678989642,2037
1630678989646,2037
1630678989650,2037
1630678989654,2037
1630678989658,2038
1630678989662,2038
1630678989666,2039
1630678989670,2039
1630678989674,2039
1630678989678,2039
1630678989682,2038
1630678989686,2038
1630678989690,2038
1630678989694,2038
1630678989698,2039
1630678989702,2039
1630678989706,2040
1630678989710,2040
1630678989714,2040
1630678989718,2040
1630678989722,2040
1630678989726,2040
1630678989730,2040
1630678989734,2040
1630678989738,2041
1630678989742,2041
1630678989746,2041
1630678989750,2041
1630678989754,2041
1630678989758,2040
1630678989762,2040
1630678989766,2040
1630678989770,2041
1630678989774,2042
1630678989778,2042
1630678989782,2043
1630678989786,2043
1630678989790,2043
1630678989794,2042
1630678989798,2042
1630678989802,2042
1630678989806,2042
1630678989810,2043
1630678989814,2043
1630678989818,2044
1630678989822,2044
1630678989826,2044
1630678989830,2044
1630678989834,2044
1630678989838,2043
1630678989842,2043
1630678989846,2042
1630678989850,2042
1630678989854,2043
1630678989858,2043
1630678989862,2043
1630678989866,2043
1630678989870,2041
1630678989874,2040
1630678989878,2040
1630678989882,2041
1630678989886,2043
1630678989890,2045
1630678989894,2048
1630678989898,2049
1630678989902,2051
1630678989906,2052
1630678989910,2052
1630678989914,2051
1630678989918,2049
1630678989922,2048
1630678989926,2047
1630678989930,2046
1630678989934,2046
1630678989938,2047
1630678989942,2048
1630678989946,2048
1630678989950,2050
1630678989954,2049
1630678989958,2045
1630678989962,2036
1630678989966,2024
1630678989970,2014
1630678989974,2013
1630678989978,2025
1630678989982,2049
1630678989986,2087
1630678989990,2129
1630678989994,2165
1630678989998,2186
1630678990002,2186
1630678990006,2167
1630678990010,2138
1630678990014,2107
1630678990018,2084
1630678990022,2068
1630678990026,2060
1630678990030,2054
1630678990034,2050
1630678990038,2047
1630678990042,2045
1630678990046,2044
1630678990050,2044
1630678990054,2044
1630678990058,2044
1630678990062,2044
1630678990066,2044
1630678990070,2044
1630678990074,2044
1630678990078,2044
1630678990082,2045
1630678990086,2045
1630678990090,2046
1630678990094,2047
1630678990098,2047
1630678990102,2048
1630678990106,2048
1630678990110,2048
1630678990114,2048
1630678990118,2049
1630678990122,2050
1630678990126,2052
1630678990130,2053
1630678990134,2055
1630678990138,2057
1630678990142,2058
1630678990146,2060
1630678990150,2062
1630678990154,2064
1630678990158,2065
1630678990162,2067
1630678990166,2069
1630678990170,2071
1630678990174,2073
1630678990178,2076
1630678990182,2077
1630678990186,2079
1630678990190,2079
1630678990194,2079
1630678990198,2078
1630678990202,2076
1630678990206,2075
1630678990210,2072
1630678990214,2070
1630678990218,2066
1630678990222,2063
1630678990226,2059
1630678990230,2056
1630678990234,2053
1630678990238,2050
1630678990242,2048
1630678990246,2046
1630678990250,2044
1630678990254,2043
1630678990258,2043
1630678990262,2043
1630678990266,2043
1630678990270,2042
1630678990274,2042
1630678990278,2042
1630678990282,2042
1630678990286,2042
1630678990290,2042
1630678990294,2042
1630678990298,2042
1630678990302,2043
1630678990306,2043
1630678990310,2043
1630678990314,2043
1630678990318,2043
1630678990322,2043
1630678990326,2043
1630678990330,2043
1630678990334,2043
1630678990338,2044
1630678990342,2045
1630678990346,2045
1630678990350,2045
1630678990354,2045
1630678990358,2044
1630678990362,2044
1630678990366,2045
1630678990370,2045
1630678990374,2046
1630678990378,2046
1630678990382,2047
1630678990386,2046
1630678990390,2046
1630678990394,2046
1630678990398,2045
1630678990402,2045
1630678990406,2046
1630678990410,2046
1630678990414,2047
1630678990418,2047
1630678990422,2047
1630678990426,2047
1630678990430,2047
1630678990434,2047
1630678990438,2047
1630678990442,2047
1630678990446,2047
1630678990450,2047
1630678990454,2048
1630678990458,2048
1630678990462,2048
1630678990466,2048
1630678990470,2048
1630678990474,2048
1630678990478,2048
1630678990482,2048
1630678990486,2048
1630678990490,2048
1630678990494,2048
1630678990498,2048
1630678990502,2048
1630678990506,2048
1630678990510,2048
1630678990514,2048
1630678990518,2048
1630678990522,2048
1630678990526,2048
1630678990530,2048
1630678990534,2048
1630678990538,2048
1630678990542,2048
1630678990546,2047
1630678990550,2046
1630678990554,2045
1630678990558,2044
1630678990562,2044
1630678990566,2045
1630678990570,2045
1630678990574,2046
1630678990578,2047
1630678990582,2048
1630678990586,2051
1630678990590,2052
1630678990594,2054
1630678990598,2054
1630678990602,2054
1630678990606,2052
1630678990610,2050
1630678990614,2048
1630678990618,2048
1630678990622,2048
1630678990626,2047
1630678990630,2047
1630678990634,2047
1630678990638,2048
1630678990642,2048
1630678990646,2047
1630678990650,2042
1630678990654,2033
1630678990658,2023
1630678990662,2016
1630678990666,2018
1630678990670,2032
1630678990674,2058
1630678990678,2095
1630678990682,2133
1630678990686,2162
1630678990690,2172
1630678990694,2162
1630678990698,2137
1630678990702,2106
1630678990706,2079
1630678990710,2062
1630678990714,2053
1630678990718,2049
1630678990722,2047
1630678990726,2043
1630678990730,2040
1630678990734,2038
1630678990738,2037
1630678990742,2037
1630678990746,2036
1630678990750,2036
1630678990754,2036
1630678990758,2036
1630678990762,2036
1630678990766,2036
1630678990770,2036
1630678990774,2036
1630678990778,2037
1630678990782,2038
1630678990786,2039
1630678990790,2040
1630678990794,2041
1630678990798,2041
1630678990802,2041
1630678990806,2041
1630678990810,2042
1630678990814,2043
1630678990818,2045
1630678990822,2046
1630678990826,2047
1630678990830,2048
1630678990834,2048
1630678990838,2050
1630678990842,2051
1630678990846,2052
1630678990850,2054
1630678990854,2056
1630678990858,2058
1630678990862,2061
1630678990866,2063
1630678990870,2064
1630678990874,2064
1630678990878,2064
1630678990882,2063
1630678990886,2063
1630678990890,2062
1630678990894,2060
1630678990898,2059
1630678990902,2057
1630678990906,2054
1630678990910,2050
1630678990914,2046
1630678990918,2040
1630678990922,2035
1630678990926,2031
1630678990930,2028
1630678990934,2026
1630678990938,2025
1630678990942,2023
1630678990946,2022
1630678990950,2019
1630678990954,2017
1630678990958,2015
1630678990962,2014
1630678990966,2014
1630678990970,2014
1630678990974,2014
1630678990978,2013
1630678990982,2012
1630678990986,2011
1630678990990,2010
