timestamp,green,ir,red
1630679468163,21290,57482,57492
1630679468173,21605,89920,85756
1630679468183,21903,93286,86999
1630679468193,22193,95190,88429
1630679468203,22464,96849,89709
1630679468213,22675,98098,90681
1630679468223,22855,99177,91546
1630679468233,23075,100462,92652
1630679468243,23319,101729,93735
1630679468253,23520,102888,94764
1630679468263,23625,103491,95332
1630679468273,23645,103579,95514
1630679468283,23639,103556,95518
1630679468293,23613,103475,95449
1630679468303,23586,103456,95443
1630679468313,23627,103788,95735
1630679468323,23709,104332,96220
1630679468333,23794,104827,96653
1630679468343,23780,104798,96618
1630679468353,23564,103382,95374
1630679468363,22981,99608,92298
1630679468373,22232,95029,88770
1630679468383,21815,92762,87145
1630679468393,21785,92528,87059
1630679468403,21956,93450,87915
1630679468413,22155,94686,88957
1630679468423,22240,95146,89267
1630679468433,22068,94120,88347
1630679468443,21642,91514,86203
1630679468453,21079,87980,83468
1630679468463,20637,85192,81437
1630679468473,20474,84204,80804
1630679468483,20479,84447,80909
1630679468493,20459,84458,80799
1630679468503,20452,84439,80728
1630679468513,20470,84529,80798
1630679468523,20560,85147,81286
1630679468533,20744,86227,82112
1630679468543,20949,87527,83098
1630679468553,21190,88983,84227
1630679468563,21416,90408,85319
1630679468573,21597,91483,86112
1630679468583,21733,92273,86753
1630679468593,21898,93289,87614
1630679468603,22125,94587,88670
1630679468613,22399,96354,90143
1630679468623,22647,97924,91452
1630679468633,22891,99431,92729
1630679468643,23079,100601,93708
1630679468653,23246,101618,94564
1630679468663,23345,102290,95099
1630679468673,23426,102701,95456
1630679468683,23458,102930,95695
1630679468693,23499,103174,95906
1630679468703,23550,103431,96147
1630679468713,23618,103860,96557
1630679468723,23729,104541,97164
1630679468733,23811,104986,97568
1630679468743,23822,105011,97621
1630679468753,23752,104588,97270
1630679468763,23638,103897,96728
1630679468773,23325,101912,95044
1630679468783,22729,98256,92080
1630679468793,22142,94980,89603
1630679468803,22000,94450,89249
1630679468813,22046,94675,89410
1630679468823,22054,94755,89505
1630679468833,22053,94704,89432
1630679468843,21806,92937,87895
1630679468853,21445,90644,86238
1630679468863,21232,89109,85254
1630679468873,21038,87954,84410
1630679468883,20872,87052,83635
1630679468893,20776,86632,83252
1630679468903,20775,86767,83298
1630679468913,20826,87042,83510
1630679468923,20883,87339,83728
1630679468933,20882,87317,83707
1630679468943,20881,87284,83652
1630679468953,20930,87654,83931
1630679468963,21059,88448,84548
1630679468973,21237,89491,85378
1630679468983,21427,90685,86268
1630679468993,21622,92047,87318
1630679469003,21858,93616,88500
1630679469013,22089,95167,89630
1630679469023,22299,96556,90649
1630679469033,22493,97774,91547
1630679469043,22651,98772,92272
1630679469053,22803,99629,92955
1630679469063,22943,100390,93570
1630679469073,23100,101119,94187
1630679469083,23286,102129,95082
1630679469093,23414,102763,95613
1630679469103,23401,102505,95411
1630679469113,23344,102131,95125
1630679469123,23327,101996,95008
1630679469133,23363,102179,95178
1630679469143,23469,102796,95678
1630679469153,23567,103235,96079
1630679469163,23614,103433,96227
1630679469173,23518,102791,95716
1630679469183,23290,101265,94484
1630679469193,22956,99272,92987
1630679469203,22688,97713,91798
1630679469213,22585,97216,91516
1630679469223,22690,97734,91997
1630679469233,22762,97990,92305
1630679469243,22740,97681,92149
1630679469253,22609,96823,91469
1630679469263,22271,94708,89573
1630679469273,21711,91479,86831
1630679469283,21261,88724,84756
1630679469293,21063,87508,83990
1630679469303,21167,88164,84635
1630679469313,21307,89007,85257
1630679469323,21402,89682,85711
1630679469333,21458,90154,86019
1630679469343,21519,90582,86316
1630679469353,21612,91161,86741
1630679469363,21723,91889,87316
1630679469373,21866,92717,87970
1630679469383,22027,93648,88762
1630679469393,22225,94823,89717
1630679469403,22437,96068,90761
1630679469413,22648,97294,91802
1630679469423,22856,98481,92850
1630679469433,23086,99819,94029
1630679469443,23341,101409,95447
1630679469453,23637,103272,97088
1630679469463,23913,105201,98688
1630679469473,24138,106649,99841
1630679469483,24244,107357,100399
1630679469493,24338,107975,100918
1630679469503,24410,108424,101325
1630679469513,24439,108561,101486
1630679469523,24449,108659,101608
1630679469533,24449,108651,101685
1630679469543,24417,108473,101594
1630679469553,24455,108658,101862
1630679469563,24488,108705,101960
1630679469573,24373,107977,101374
1630679469583,24059,106020,99676
1630679469593,23516,102819,96988
1630679469603,22990,99926,94735
1630679469613,22770,98857,93984
1630679469623,22848,99572,94601
1630679469633,23108,101118,95851
1630679469643,23153,101395,96029
1630679469653,23097,100959,95572
1630679469663,22754,98968,93782
1630679469673,22395,96899,92173
1630679469683,22214,95833,91468
1630679469693,22168,95634,91320
1630679469703,22127,95519,91149
1630679469713,22074,95391,90937
1630679469723,22008,95156,90657
1630679469733,21978,95075,90553
1630679469743,22013,95270,90762
1630679469753,22058,95539,90990
1630679469763,22112,95851,91219
1630679469773,22184,96350,91572
1630679469783,22300,97116,92172
1630679469793,22452,98084,92994
1630679469803,22623,99014,93617
1630679469813,22750,99718,94128
1630679469823,22852,100431,94737
1630679469833,22996,101160,95210
1630679469843,23063,101555,95535
1630679469853,23200,102329,96158
1630679469863,23327,103023,96741
1630679469873,23506,103977,97487
1630679469883,23692,105029,98396
1630679469893,23846,105860,99084
1630679469903,23935,106274,99432
1630679469913,23929,106161,99302
1630679469923,23865,105768,98954
1630679469933,23785,105269,98534
1630679469943,23755,105147,98484
1630679469953,23829,105518,98878
1630679469963,23915,105855,99174
1630679469973,23910,105664,99075
1630679469983,23655,104051,97677
1630679469993,23174,101090,95207
1630679470003,22673,98198,92878
1630679470013,22340,96438,91501
1630679470023,22484,97381,92455
1630679470033,22633,98303,93157
1630679470043,22806,99330,94140
1630679470053,22779,99036,93864
1630679470063,22539,97694,92747
1630679470073,22080,95169,90572
1630679470083,21651,92881,88659
1630679470093,21414,91638,87680
1630679470103,21409,91609,87725
1630679470113,21466,91950,87936
1630679470123,21506,92193,88026
1630679470133,21511,92402,88225
1630679470143,21557,92736,88536
1630679470153,21691,93561,89226
1630679470163,21876,94603,90144
1630679470173,22061,95661,91006
1630679470183,22218,96531,91733
1630679470193,22367,97367,92429
1630679470203,22518,98208,93106
1630679470213,22669,99047,93808
1630679470223,22824,99885,94522
1630679470233,22974,100734,95224
1630679470243,23122,101541,95903
1630679470253,23294,102515,96647
1630679470263,23418,103330,97378
1630679470273,23595,104238,98047
1630679470283,23692,104934,98656
1630679470293,23830,105636,99115
1630679470303,23902,106125,99487
1630679470313,23970,106631,99794
1630679470323,24039,106908,100040
1630679470333,24086,107273,100329
1630679470343,24164,107663,100645
1630679470353,24200,107884,100836
1630679470363,24193,107835,100818
1630679470373,24121,107359,100428
1630679470383,23929,106176,99427
1630679470393,23594,104096,97731
1630679470403,23142,101492,95639
1630679470413,22823,99892,94409
1630679470423,22824,100206,94704
1630679470433,23018,101420,95641
1630679470443,23157,102228,96229
1630679470453,23184,102219,96264
1630679470463,23022,101091,95339
1630679470473,22663,98798,93465
1630679470483,22257,96483,91638
1630679470493,22007,95242,90634
1630679470503,21984,95263,90574
1630679470513,22009,95545,90685
1630679470523,21967,95442,90439
1630679470533,21913,95268,90212
1630679470543,21921,95317,90251
1630679470553,21938,95338,90294
1630679470563,21951,95342,90307
1630679470573,21984,95524,90450
1630679470583,22071,96022,90921
1630679470593,22209,96822,91586
1630679470603,22359,97677,92269
1630679470613,22460,98379,92769
1630679470623,22565,98930,93127
1630679470633,22673,99494,93521
1630679470643,22750,99976,93834
1630679470653,22816,100331,94126
1630679470663,22927,100900,94629
1630679470673,23070,101713,95344
1630679470683,23263,102757,96261
1630679470693,23442,103720,97073
1630679470703,23561,104312,97572
1630679470713,23602,104457,97691
1630679470723,23577,104318,97577
1630679470733,23572,104270,97545
1630679470743,23578,104313,97547
1630679470753,23586,104371,97588
1630679470763,23589,104371,97607
1630679470773,23563,104252,97525
1630679470783,23418,103363,96733
1630679470793,23016,101088,94778
1630679470803,22586,98722,92857
1630679470813,22344,97536,91957
1630679470823,22418,98064,92545
1630679470833,22630,99268,93620
1630679470843,22788,100103,94449
1630679470853,22844,100308,94751
1630679470863,22728,99594,94220
1630679470873,22430,97855,92723
1630679470883,22042,95763,90755
1630679470893,21765,94174,89460
1630679470903,21737,94020,89378
1630679470913,21823,94466,89816
1630679470923,21902,94975,90207
1630679470933,21933,95190,90357
1630679470943,21970,95374,90548
1630679470953,22010,95701,90817
1630679470963,22107,96313,91322
1630679470973,22245,97117,91986
1630679470983,22358,97824,92573
1630679470993,22476,98429,93052
1630679471003,22585,99035,93549
1630679471013,22674,99575,93975
1630679471023,22782,100198,94476
1630679471033,22889,100785,94965
1630679471043,23004,101426,95483
1630679471053,23115,101989,96018
1630679471063,23274,102803,96800
1630679471073,23366,103359,97280
1630679471083,23439,103825,97678
1630679471093,23510,104301,98040
1630679471103,23594,104771,98374
1630679471113,23640,105022,98519
1630679471123,23628,104995,98504
1630679471133,23624,104930,98505
1630679471143,23660,105119,98717
1630679471153,23712,105464,99076
1630679471163,23774,105823,99432
1630679471173,23782,105841,99500
1630679471183,23674,105307,99062
1630679471193,23517,104348,98287
1630679471203,23142,102213,96412
1630679471213,22615,99349,93970
1630679471223,22290,97667,92652
1630679471233,22271,97776,92743
1630679471243,22447,98888,93617
1630679471253,22558,99690,94177
1630679471263,22589,99788,94263
1630679471273,22372,98511,93093
1630679471283,22060,96589,91618
1630679471293,21794,94978,90401
1630679471303,21628,94066,89699
1630679471313,21638,94173,89778
1630679471323,21681,94503,89978
1630679471333,21659,94468,89819
1630679471343,21590,94168,89429
1630679471353,21507,93716,88949
1630679471363,21437,93263,88519
1630679471373,21399,93065,88358
1630679471383,21415,93104,88442
1630679471393,21488,93483,88786
1630679471403,21610,94179,89379
1630679471413,21756,94987,90030
1630679471423,21848,95687,90530
1630679471433,21945,96250,90896
1630679471443,22034,96781,91258
1630679471453,22103,97247,91603
1630679471463,22197,97777,92014
1630679471473,22304,98348,92505
1630679471483,22432,99013,93095
1630679471493,22560,99729,93718
1630679471503,22665,100331,94245
1630679471513,22734,100668,94504
1630679471523,22757,100824,94657
1630679471533,22779,101018,94825
1630679471543,22824,101310,95078
1630679471553,22844,101463,95217
1630679471563,22867,101639,95379
1630679471573,22852,101539,95294
1630679471583,22740,100895,94737
1630679471593,22448,99143,93250
1630679471603,22060,96971,91493
1630679471613,21756,95202,90131
1630679471623,21623,94486,89634
1630679471633,21667,94762,89922
1630679471643,21769,95389,90519
1630679471653,21862,95860,91005
1630679471663,21818,95528,90760
1630679471673,21569,94062,89464
1630679471683,21185,91893,87529
1630679471693,20840,89981,85858
1630679471703,20694,89263,85203
1630679471713,20717,89405,85334
1630679471723,20752,89644,85434
1630679471733,20737,89620,85381
1630679471743,20780,89832,85583
1630679471753,20818,90136,85830
1630679471763,20896,90489,86117
1630679471773,20982,90999,86466
1630679471783,21050,91542,86883
1630679471793,21162,92108,87305
1630679471803,21255,92653,87756
1630679471813,21370,93284,88286
1630679471823,21495,93932,88861
1630679471833,21635,94652,89542
1630679471843,21799,95556,90367
1630679471853,21972,96511,91177
1630679471863,22122,97361,91894
1630679471873,22239,98048,92442
1630679471883,22345,98679,92947
1630679471893,22481,99506,93653
1630679471903,22608,100241,94248
1630679471913,22678,100743,94671
1630679471923,22698,100931,94836
1630679471933,22724,101099,95023
1630679471943,22759,101326,95273
1630679471953,22801,101576,95522
1630679471963,22820,101680,95671
1630679471973,22787,101441,95473
1630679471983,22643,100640,94820
1630679471993,22404,99275,93620
1630679472003,21955,96707,91312
1630679472013,21454,93990,89019
1630679472023,21286,93176,88457
1630679472033,21410,93992,89178
1630679472043,21582,95111,89982
1630679472053,21613,95185,90067
1630679472063,21459,94272,89347
1630679472073,21167,92491,87824
1630679472083,20845,90548,86213
1630679472093,20587,89189,84999
1630679472103,20542,89111,84985
1630679472113,20654,89694,85441
1630679472123,20677,89905,85468
1630679472133,20597,89582,85021
1630679472143,20534,89274,84661
1630679472153,20501,89115,84483
1630679472163,20516,89198,84523
1630679472173,20608,89636,84921
1630679472183,20778,90575,85762
1630679472193,21021,91892,86933
1630679472203,21266,93321,88102
1630679472213,21391,93994,88581
1630679472223,21523,94733,89209
1630679472233,21659,95461,89791
1630679472243,21775,96054,90239
1630679472253,21834,96342,90485
1630679472263,21907,96738,90847
1630679472273,22008,97308,91368
1630679472283,22133,97979,91973
1630679472293,22247,98694,92617
1630679472303,22352,99311,93171
1630679472313,22402,99603,93446
1630679472323,22394,99599,93428
1630679472333,22374,99490,93353
1630679472343,22382,99581,93449
1630679472353,22423,99843,93709
1630679472363,22499,100253,94079
1630679472373,22594,100805,94584
1630679472383,22676,101259,95009
1630679472393,22671,101218,94983
1630679472403,22494,100125,94026
1630679472413,22194,98215,92496
1630679472423,21864,96326,91020
1630679472433,21717,95483,90504
1630679472443,21850,96176,91300
1630679472453,22068,97340,92312
1630679472463,22192,98026,92939
1630679472473,22207,98075,92972
1630679472483,22053,97199,92125
1630679472493,21790,95714,90819
1630679472503,21568,94425,89803
1630679472513,21464,93708,89310
1630679472523,21525,93935,89622
1630679472533,21481,93768,89415
1630679472543,21438,93696,89193
1630679472553,21483,94085,89420
1630679472563,21555,94520,89729
1630679472573,21619,95062,90154
1630679472583,21754,95846,90736
1630679472593,21911,96776,91511
1630679472603,22116,97815,92387
1630679472613,22276,98785,93207
1630679472623,22411,99497,93825
1630679472633,22540,100149,94454
1630679472643,22677,100894,95126
1630679472653,22849,101913,96003
1630679472663,23046,102937,96886
1630679472673,23196,103904,97665
1630679472683,23309,104425,98024
1630679472693,23361,104927,98538
1630679472703,23479,105641,99074
1630679472713,23548,105933,99308
1630679472723,23574,106281,99698
1630679472733,23616,106363,99745
1630679472743,23610,106431,99924
1630679472753,23649,106578,100064
1630679472763,23703,106825,100445
1630679472773,23797,107270,100866
1630679472783,23784,107128,100845
1630679472793,23636,106164,100119
1630679472803,23285,104006,98343
1630679472813,22825,101458,96377
1630679472823,22521,99832,95069
1630679472833,22477,99830,95038
1630679472843,22641,100968,95943
1630679472853,22746,101540,96284
1630679472863,22775,101605,96298
1630679472873,22664,100787,95642
1630679472883,22479,99506,94787
1630679472893,22295,98293,93961
1630679472903,22156,97428,93342
1630679472913,22166,97415,93357
1630679472923,22226,97781,93648
1630679472933,22196,97637,93368
1630679472943,22051,96925,92632
1630679472953,22013,96678,92402
1630679472963,21904,96122,91815
1630679472973,21921,96321,91828
1630679472983,21941,96535,91993
1630679472993,22064,97258,92631
1630679473003,22219,97971,93183
1630679473013,22338,98609,93762
1630679473023,22466,99377,94428
1630679473033,22578,99994,94837
1630679473043,22657,100365,95087
1630679473053,22662,100699,95360
1630679473063,22731,101076,95698
1630679473073,22806,101529,96048
1630679473083,22909,102153,96588
1630679473093,23029,102856,97239
1630679473103,23215,104073,98239
1630679473113,23362,104912,98914
1630679473123,23404,105186,99188
1630679473133,23360,104980,99044
1630679473143,23367,105006,99099
1630679473153,23397,105150,99217
1630679473163,23382,105251,99378
1630679473173,23370,105151,99199
1630679473183,23167,103954,98178
1630679473193,22878,102381,96946
1630679473203,22657,101103,95987
1630679473213,22569,100579,95605
1630679473223,22636,101115,96102
1630679473233,22848,102266,97133
1630679473243,23028,103205,98056
1630679473253,23117,103530,98442
1630679473263,23072,102973,98020
1630679473273,22846,101579,96871
1630679473283,22557,99874,95412
1630679473293,22341,98765,94431
1630679473303,22292,98574,94222
1630679473313,22349,99103,94610
1630679473323,22426,99647,94998
1630679473333,22499,100103,95353
1630679473343,22572,100509,95653
1630679473353,22641,100849,95913
1630679473363,22693,101213,96175
1630679473373,22727,101432,96301
1630679473383,22780,101731,96514
1630679473393,22892,102365,97012
1630679473403,22992,103006,97499
1630679473413,23122,103786,98147
1630679473423,23260,104570,98779
1630679473433,23393,105378,99515
1630679473443,23520,106096,100146
1630679473453,23629,106734,100778
1630679473463,23713,107179,101223
1630679473473,23782,107556,101614
1630679473483,23801,107744,101769
1630679473493,23802,107883,101813
1630679473503,23771,107903,101753
1630679473513,23740,107912,101705
1630679473523,23733,107909,101610
1630679473533,23688,107798,101556
1630679473543,23692,107737,101564
1630679473553,23622,107341,101342
1630679473563,23519,106703,100915
1630679473573,23400,105979,100375
1630679473583,23077,104007,98783
1630679473593,22687,101780,97065
1630679473603,22361,100051,95586
1630679473613,22202,99363,94945
1630679473623,22260,99831,95353
1630679473633,22434,100699,96226
1630679473643,22573,101304,96911
1630679473653,22487,100610,96425
1630679473663,22254,99120,95221
1630679473673,21901,97202,93590
1630679473683,21658,95992,92405
1630679473693,21630,95983,92370
1630679473703,21767,96803,93156
1630679473713,21876,97238,93502
1630679473723,21821,97049,93248
1630679473733,21712,96547,92709
1630679473743,21643,96252,92348
1630679473753,21641,96299,92358
1630679473763,21689,96569,92594
1630679473773,21776,96978,92959
1630679473783,21888,97563,93451
1630679473793,22002,98182,93990
1630679473803,22073,98608,94353
1630679473813,22127,98946,94648
1630679473823,22180,99305,94944
1630679473833,22247,99785,95385
1630679473843,22344,100379,95976
1630679473853,22457,101060,96602
1630679473863,22566,101682,97179
1630679473873,22658,102200,97636
1630679473883,22698,102413,97807
1630679473893,22678,102327,97670
1630679473903,22595,101942,97268
1630679473913,22536,101654,97006
1630679473923,22512,101554,96903
1630679473933,22525,101648,96996
1630679473943,22562,101808,97154
1630679473953,22577,101820,97245
1630679473963,22572,101725,97199
1630679473973,22405,100674,96320
1630679473983,22125,99013,95025
1630679473993,21918,97852,94149
1630679474003,21859,97524,93942
1630679474013,22018,98361,94779
1630679474023,22247,99453,95892
1630679474033,22406,100185,96706
1630679474043,22375,99856,96427
1630679474053,22081,98176,94849
1630679474063,21734,96345,93131
1630679474073,21490,95168,91951
1630679474083,21367,94597,91339
1630679474093,21329,94413,91179
1630679474103,21351,94522,91226
1630679474113,21340,94470,91121
1630679474123,21291,94264,90848
1630679474133,21233,93964,90485
1630679474143,21209,93894,90333
1630679474153,21228,94051,90402
1630679474163,21288,94416,90679
1630679474173,21396,94980,91118
1630679474183,21497,95576,91614
1630679474193,21577,96115,92024
1630679474203,21652,96547,92405
1630679474213,21724,96980,92837
1630679474223,21814,97446,93263
1630679474233,21865,97832,93600
1630679474243,21939,98259,93993
1630679474253,22033,98854,94484
1630679474263,22135,99494,94990
1630679474273,22221,100003,95382
1630679474283,22266,100288,95598
1630679474293,22272,100325,95608
1630679474303,22270,100334,95584
1630679474313,22267,100297,95578
1630679474323,22265,100244,95535
1630679474333,22235,100021,95352
1630679474343,22181,99718,95126
1630679474353,21982,98505,94059
1630679474363,21625,96367,92285
1630679474373,21326,94792,90982
1630679474383,21150,93937,90209
1630679474393,21197,94246,90415
1630679474403,21274,94656,90786
1630679474413,21344,94966,91156
1630679474423,21318,94654,90895
1630679474433,21046,93058,89411
1630679474443,20722,91201,87765
1630679474453,20502,90017,86689
1630679474463,20458,89876,86470
1630679474473,20521,90270,86811
1630679474483,20571,90513,86956
1630679474493,20518,90289,86699
1630679474503,20440,89867,86243
1630679474513,20375,89525,85855
1630679474523,20364,89423,85729
1630679474533,20395,89674,85914
1630679474543,20476,90097,86315
1630679474553,20609,90796,86932
1630679474563,20736,91516,87598
1630679474573,20862,92145,88131
1630679474583,20958,92717,88642
1630679474593,21063,93290,89149
1630679474603,21164,93912,89700
1630679474613,21289,94624,90359
1630679474623,21424,95419,91035
1630679474633,21548,96089,91636
1630679474643,21637,96655,92083
1630679474653,21678,96908,92266
1630679474663,21671,96871,92213
1630679474673,21633,96598,91981
1630679474683,21606,96493,91885
1630679474693,21618,96560,91942
1630679474703,21666,96777,92137
1630679474713,21721,97158,92497
1630679474723,21775,97405,92727
1630679474733,21741,97148,92506
1630679474743,21537,95935,91422
1630679474753,21160,93729,89542
1630679474763,20855,92043,88154
1630679474773,20697,91252,87515
1630679474783,20763,91683,87931
1630679474793,20945,92642,88811
1630679474803,21083,93301,89521
1630679474813,21146,93600,89832
1630679474823,21047,92962,89243
1630679474833,20817,91656,88065
1630679474843,20582,90322,86844
1630679474853,20436,89515,86124
1630679474863,20446,89548,86201
1630679474873,20500,89855,86453
1630679474883,20501,89858,86397
1630679474893,20457,89665,86160
1630679474903,20432,89541,86000
1630679474913,20451,89701,86103
1630679474923,20519,90066,86432
1630679474933,20620,90612,86945
1630679474943,20756,91280,87552
1630679474953,20870,91948,88102
1630679474963,20960,92531,88573
1630679474973,21049,92992,88973
1630679474983,21110,93425,89388
1630679474993,21186,93875,89845
1630679475003,21296,94433,90389
1630679475013,21395,95066,90929
1630679475023,21503,95721,91501
1630679475033,21606,96322,91999
1630679475043,21690,96865,92442
1630679475053,21768,97332,92828
1630679475063,21843,97759,93161
1630679475073,21903,98111,93431
1630679475083,21925,98236,93495
1630679475093,21933,98244,93554
1630679475103,21950,98327,93634
1630679475113,21946,98265,93617
1630679475123,21912,98029,93438
1630679475133,21801,97366,92865
1630679475143,21520,95783,91453
1630679475153,21186,94010,89950
1630679475163,21015,93098,89205
1630679475173,20975,92896,88968
1630679475183,20942,92746,88761
1630679475193,20895,92475,88501
1630679475203,20904,92454,88560
1630679475213,20867,92173,88342
1630679475223,20776,91541,87844
1630679475233,20684,90989,87447
1630679475243,20672,90968,87499
1630679475253,20739,91361,87893
1630679475263,20763,91555,88046
1630679475273,20693,91165,87610
1630679475283,20543,90364,86771
1630679475293,20398,89618,85995
1630679475303,20313,89185,85526
1630679475313,20320,89214,85487
1630679475323,20386,89571,85822
1630679475333,20480,90143,86337
1630679475343,20621,90813,86967
1630679475353,20743,91504,87533
1630679475363,20846,92135,88073
1630679475373,20921,92660,88494
1630679475383,20979,93057,88776
1630679475393,21028,93344,89010
1630679475403,21086,93674,89264
1630679475413,21146,94020,89564
1630679475423,21223,94463,89983
1630679475433,21308,94905,90378
1630679475443,21369,95225,90664
1630679475453,21385,95315,90735
1630679475463,21380,95314,90691
1630679475473,21397,95382,90734
1630679475483,21425,95585,90870
1630679475493,21497,95937,91161
1630679475503,21577,96428,91586
1630679475513,21666,96835,91953
1630679475523,21691,96966,92072
1630679475533,21623,96516,91671
1630679475543,21361,95006,90282
1630679475553,21027,93131,88700
1630679475563,20827,92075,87806
1630679475573,20725,91512,87347
1630679475583,20775,91775,87660
1630679475593,20899,92440,88363
1630679475603,21014,92976,88972
1630679475613,21052,93143,89174
1630679475623,20968,92679,88711
1630679475633,20804,91741,87830
1630679475643,20623,90774,86964
1630679475653,20484,89988,86234
1630679475663,20418,89617,85904
1630679475673,20399,89553,85848
1630679475683,20410,89558,85840
1630679475693,20424,89631,85867
1630679475703,20448,89811,85997
1630679475713,20500,90112,86216
1630679475723,20549,90443,86433
1630679475733,20604,90785,86690
1630679475743,20654,91094,86927
1630679475753,20711,91420,87217
1630679475763,20776,91779,87530
1630679475773,20841,92151,87850
1630679475783,20912,92550,88224
1630679475793,21002,93067,88694
1630679475803,21099,93648,89218
1630679475813,21227,94299,89822
1630679475823,21362,95055,90523
1630679475833,21499,95879,91250
1630679475843,21629,96543,91839
1630679475853,21704,96966,92195
1630679475863,21756,97282,92425
1630679475873,21809,97584,92658
1630679475883,21857,97879,92839
1630679475893,21873,97897,92852
1630679475903,21851,97718,92720
1630679475913,21769,97201,92265
1630679475923,21510,95644,90865
1630679475933,21157,93638,89134
1630679475943,20927,92417,88180
1630679475953,20864,92067,87935
1630679475963,20882,92155,88022
1630679475973,20890,92171,88013
1630679475983,20903,92218,88183
1630679475993,21033,92853,88816
1630679476003,20998,92593,88490
1630679476013,20763,91278,87309
1630679476023,20592,90321,86501
1630679476033,20498,89837,86091
1630679476043,20463,89660,85926
1630679476053,20443,89539,85767
1630679476063,20341,88962,85222
1630679476073,20264,88538,84830
1630679476083,20287,88616,84879
1630679476093,20336,88870,85098
1630679476103,20385,89156,85258
1630679476113,20436,89579,85596
1630679476123,20541,90185,86123
1630679476133,20655,90827,86677
1630679476143,20746,91454,87195
1630679476153,20844,91968,87605
1630679476163,20910,92371,87887
1630679476173,20976,92772,88190
1630679476183,21061,93232,88560
1630679476193,21132,93707,88918
1630679476203,21210,94124,89263
1630679476213,21294,94631,89653
1630679476223,21366,95025,89948
1630679476233,21374,95134,89942
1630679476243,21408,95531,90243
1630679476253,21471,95918,90544
1630679476263,21581,96638,91156
1630679476273,21684,97251,91654
1630679476283,21696,97742,92031
1630679476293,21882,98886,93010
1630679476303,21878,98701,92876
1630679476313,21768,98148,92421
1630679476323,21562,96816,91267
1630679476333,21230,94850,89601
1630679476343,20961,93382,88452
1630679476353,20857,92874,88065
1630679476363,20927,93335,88510
1630679476373,21089,94247,89384
1630679476383,21215,94960,90118
1630679476393,21288,95236,90442
1630679476403,21228,94821,90126
1630679476413,21066,93764,89228
1630679476423,20847,92410,88095
1630679476433,20634,91227,87061
1630679476443,20514,90611,86507
1630679476453,20478,90308,86227
1630679476463,20475,90291,86154
1630679476473,20534,90664,86486
1630679476483,20590,91081,86826
1630679476493,20642,91447,87109
1630679476503,20702,91843,87397
1630679476513,20760,92247,87713
1630679476523,20815,92653,88004
1630679476533,20895,93114,88375
1630679476543,20962,93572,88716
1630679476553,21029,93971,89008
1630679476563,21088,94355,89294
1630679476573,21181,94867,89706
1630679476583,21278,95461,90209
1630679476593,21400,96181,90834
1630679476603,21539,97029,91599
1630679476613,21700,97953,92397
1630679476623,21851,98831,93105
1630679476633,21963,99518,93704
1630679476643,22061,100026,94089
1630679476653,22121,100414,94411
1630679476663,22172,100650,94621
1630679476673,22205,100870,94782
1630679476683,22252,101120,95005
1630679476693,22285,101279,95171
1630679476703,22316,101404,95339
1630679476713,22279,101078,95076
1630679476723,22030,99500,93702
1630679476733,21702,97497,92171
1630679476743,21502,96307,91361
1630679476753,21364,95538,90696
1630679476763,21310,95298,90422
1630679476773,21325,95397,90450
1630679476783,21348,95475,90535
1630679476793,21405,95813,90870
1630679476803,21402,95590,90677
1630679476813,21314,94920,90203
1630679476823,21232,94384,89857
1630679476833,21124,93846,89443
1630679476843,21145,94024,89594
1630679476853,21272,94918,90553
1630679476863,21331,95770,90958
1630679476873,21086,96235,91263
1630679476883,20572,94881,89264
1630679476893,19948,92916,86593
1630679476903,19508,91741,84788
1630679476913,19250,91203,83818
1630679476923,19157,91340,83715
1630679476933,19182,92043,84281
1630679476943,19348,93386,85769
1630679476953,19613,95072,87826
1630679476963,20045,97449,90971
1630679476973,20596,100476,94779
1630679476983,21177,103394,98570
1630679476993,22044,107725,103382
1630679477003,22852,111649,107589
1630679477013,23654,115805,111846
1630679477023,24384,119760,115866
1630679477033,25540,126412,121964
1630679477043,26436,132044,126199
1630679477053,26794,135553,128104
1630679477063,26962,137818,129328
1630679477073,27173,139676,130613
1630679477083,27705,143013,133578
1630679477093,28633,148076,137884
1630679477103,29429,151977,141346
1630679477113,30197,156624,144873
1630679477123,31162,161507,148913
1630679477133,31858,165103,151724
1630679477143,32257,167304,153628
1630679477153,32545,169029,155021
1630679477163,32795,170970,156542
1630679477173,33166,173350,158356
1630679477183,33391,174485,159344
1630679477193,33510,174936,159926
1630679477203,33694,175505,160674
1630679477213,33937,177058,162100
1630679477223,34258,179874,164172
1630679477233,34514,182724,166010
1630679477243,34650,184777,167257
1630679477253,34728,185848,167982
1630679477263,34759,186361,168381
1630679477273,34845,187074,169007
1630679477283,34947,187652,169535
1630679477293,34992,187840,169757
1630679477303,34982,187667,169599
1630679477313,34985,187578,169523
1630679477323,35059,187999,169941
1630679477333,35230,188783,170753
1630679477343,35458,189717,171786
1630679477353,35759,190177,172622
1630679477363,36649,190577,174138
1630679477373,37096,189952,174876
1630679477383,37377,189606,175581
1630679477393,37780,190339,176780
1630679477403,37988,191272,177532
1630679477413,38144,192401,177983
1630679477423,38078,193326,177811
1630679477433,37951,194588,177602
1630679477443,37951,195528,176950
1630679477453,37079,193990,173101
1630679477463,36777,193260,171247
1630679477473,37010,193186,171559
1630679477483,37853,193637,172994
1630679477493,38520,194037,173796
1630679477503,38682,194468,174189
1630679477513,38972,195745,175589
1630679477523,39532,197039,178047
1630679477533,40065,197432,180201
1630679477543,40339,196277,181093
1630679477553,39979,191963,178969
1630679477563,38928,184151,173701
1630679477573,37810,176186,167908
1630679477583,36848,170033,163331
1630679477593,36271,166553,160483
1630679477603,35782,163818,157842
1630679477613,35492,162622,156528
1630679477623,35484,162599,156403
1630679477633,35669,163326,156780
1630679477643,36175,163622,158491
1630679477653,32683,150068,147456
1630679477663,33257,156367,147017
1630679477673,31240,148799,138420
1630679477683,29065,139984,129143
1630679477693,26817,131072,119662
1630679477703,25202,123359,113103
1630679477713,24349,119483,109820
1630679477723,24282,118753,109644
1630679477733,24282,118224,109703
1630679477743,24592,118996,111248
1630679477753,25431,122163,115111
1630679477763,26781,126706,120806
1630679477773,28291,131151,126726
1630679477783,29205,134651,130789
1630679477793,29439,136971,132030
1630679477803,29391,140517,132593
1630679477813,28702,142635,131281
1630679477823,26919,139632,125897
1630679477833,25090,134344,119544
1630679477843,24042,129960,114930
1630679477853,23664,127514,112845
1630679477863,24019,126583,113228
1630679477873,24737,127103,115295
1630679477883,25331,127783,118152
1630679477893,26045,128964,122228
1630679477903,26872,130704,126519
1630679477913,27735,133350,130538
1630679477923,28523,136832,134053
1630679477933,29202,140073,136787
1630679477943,30088,144847,141004
1630679477953,31550,153116,147475
1630679477963,33116,161776,153620
1630679477973,34271,167986,156855
1630679477983,35088,172721,158827
1630679477993,36013,177168,160783
1630679478003,36834,180091,161105
1630679478013,35858,170344,151203
1630679478023,32053,147456,131072
1630679478033,27067,114688,103783
1630679478043,22430,89594,82558
1630679478053,19062,73237,68135
1630679478063,17623,67275,62428
1630679478073,18045,70317,64026
1630679478083,20223,82789,73733
1630679478093,25410,106277,96919
1630679478103,34416,139256,134142
1630679478113,42804,171996,168373
1630679478123,42766,204755,178602
1630679478133,35733,219103,167114
1630679478143,32365,219379,165062
1630679478153,30988,215205,161581
1630679478163,29582,212488,158130
1630679478173,29282,213094,155996
1630679478183,28819,213097,153520
1630679478193,28292,212708,152717
1630679478203,27562,212348,152136
1630679478213,26820,212443,151309
1630679478223,26063,212787,150639
1630679478233,25563,213930,151469
1630679478243,24652,213430,150604
1630679478253,23508,212516,149064
1630679478263,23224,214253,149165
1630679478273,23810,217164,150675
1630679478283,24587,219266,151643
1630679478293,26857,223262,157590
1630679478303,28971,221032,161354
1630679478313,29266,208838,156821
1630679478323,29181,198993,151544
1630679478333,29010,194161,149316
1630679478343,29158,193018,149456
1630679478353,29553,193815,150977
1630679478363,30398,195965,153217
1630679478373,31593,199542,158929
1630679478383,33271,205018,165037
1630679478393,32563,195890,159270
1630679478403,30545,180224,145035
1630679478413,26794,147456,131072
1630679478423,22836,117780,99713
1630679478433,19997,98304,83185
1630679478443,17867,79879,71323
1630679478453,16607,70474,64704
1630679478463,16103,66913,62573
1630679478473,16585,69550,65118
1630679478483,17670,75725,70452
1630679478493,19215,85656,78887
1630679478503,22354,106298,97576
1630679478513,26945,139064,124154
1630679478523,32304,171988,155462
1630679478533,37191,204754,184541
1630679478543,39723,237192,199360
1630679478553,40926,253081,208378
1630679478563,41053,260365,215008
1630679478573,40666,263899,217877
1630679478583,40535,266148,219883
1630679478593,40094,266108,220008
1630679478603,39640,266124,219994
1630679478613,38855,265883,219199
1630679478623,38312,265616,218860
1630679478633,38075,265518,219164
1630679478643,37692,265251,219565
1630679478653,37555,264772,220344
1630679478663,36670,263483,219192
1630679478673,34641,261283,215989
1630679478683,32565,259580,212238
1630679478693,31920,259404,211176
1630679478703,32517,260327,212731
1630679478713,34113,262488,215970
1630679478723,35877,264742,219171
1630679478733,37914,267504,223464
1630679478743,39054,269344,225232
1630679478753,38905,269326,223204
1630679478763,38225,268255,221091
1630679478773,37410,267052,218861
1630679478783,37016,266315,217655
1630679478793,36703,265906,216794
1630679478803,36636,266064,216702
1630679478813,36619,266355,216816
1630679478823,37015,266960,217858
1630679478833,37587,267784,219240
1630679478843,38354,268800,221033
1630679478853,39184,269793,222937
1630679478863,39932,270590,224587
1630679478873,40526,270785,225921
1630679478883,41006,270730,227150
1630679478893,41295,269948,227733
1630679478903,41160,268616,227150
1630679478913,40473,266356,225165
1630679478923,39420,263726,222593
1630679478933,38164,260749,219340
1630679478943,37372,258903,217491
1630679478953,37510,258690,218045
1630679478963,38658,260147,220785
1630679478973,41824,262889,227158
1630679478983,47649,266101,236541
1630679478993,53003,269151,244211
1630679479003,55855,270927,247368
1630679479013,57337,270176,247984
1630679479023,58115,268431,249881
1630679479033,57617,264535,248390
1630679479043,56277,260161,248689
1630679479053,56121,260846,250141
1630679479063,57357,265194,254664
1630679479073,57889,267564,256739
1630679479083,58303,268859,257394
1630679479093,58768,269408,257770
1630679479103,58858,268912,256663
1630679479113,58753,267664,254188
1630679479123,58308,265985,251310
1630679479133,57930,264505,248614
1630679479143,56978,260386,243262
1630679479153,56129,257464,240315
1630679479163,55657,255944,239072
1630679479173,55162,254616,237464
1630679479183,54246,252540,234882
1630679479193,53233,251436,234174
1630679479203,52198,250865,233039
1630679479213,51574,250953,232397
1630679479223,51125,251622,231411
1630679479233,50481,251468,228402
1630679479243,49702,250952,225380
1630679479253,48971,250602,222639
1630679479263,48557,250748,220913
1630679479273,48774,251738,221612
1630679479283,49311,252765,222464
1630679479293,49800,252696,223363
1630679479303,50745,254116,227511
1630679479313,52357,258939,237338
1630679479323,52134,256452,236140
1630679479333,52018,253735,236322
1630679479343,53703,257106,240152
1630679479353,55414,261095,243631
1630679479363,56747,264427,247097
1630679479373,58044,267797,250059
1630679479383,59285,270736,253252
1630679479393,60483,272959,254986
1630679479403,61017,273703,254298
1630679479413,60892,271881,251608
1630679479423,60630,269440,247489
1630679479433,60227,267262,244378
1630679479443,59993,265113,243687
1630679479453,59546,262831,245954
1630679479463,58670,261758,249028
1630679479473,58664,263121,252371
1630679479483,58948,265077,254719
1630679479493,58795,266985,254670
1630679479503,58057,267252,250501
1630679479513,56829,265877,244968
1630679479523,55192,263806,238961
1630679479533,53578,260674,233067
1630679479543,51846,256275,226457
1630679479553,50272,251353,219071
1630679479563,49079,246987,212826
1630679479573,48129,242979,207544
1630679479583,47402,239111,202406
1630679479593,46401,233488,195631
1630679479603,44933,226551,187777
1630679479613,42915,218565,179310
1630679479623,41018,211026,171772
1630679479633,39786,204978,166316
1630679479643,39071,199657,161893
1630679479653,38412,195016,158378
1630679479663,38140,192306,156910
1630679479673,38127,190641,156477
1630679479683,38576,192143,158789
1630679479693,39272,195371,161630
1630679479703,39703,198860,165844
1630679479713,39932,200295,167296
1630679479723,39247,197385,164458
1630679479733,37844,189657,157044
1630679479743,35666,180224,147456
1630679479753,33471,165073,135487
1630679479763,31876,155905,128328
1630679479773,31249,153235,126605
1630679479783,31624,157044,129671
1630679479793,32361,165339,135855
1630679479803,33425,177746,144580
1630679479813,34203,191836,154461
1630679479823,33572,203440,161237
1630679479833,32746,209774,163696
1630679479843,32317,211135,163656
1630679479853,32482,210097,162987
1630679479863,33065,208396,162331
1630679479873,33561,205921,161413
1630679479883,33701,205909,161991
1630679479893,32268,213416,165507
1630679479903,27400,221078,164926
1630679479913,24487,224935,162377
1630679479923,22768,222832,156632
1630679479933,21854,220923,154856
1630679479943,21567,219555,154180
1630679479953,21669,219480,154486
1630679479963,22014,220657,155705
1630679479973,22447,222556,157057
1630679479983,22890,224387,157849
1630679479993,23368,226013,158963
1630679480003,23780,227336,160188
1630679480013,24124,228190,161188
1630679480023,24457,228960,162092
1630679480033,24708,229536,162976
1630679480043,24807,229588,163316
1630679480053,24730,229315,163189
1630679480063,24558,228627,162903
1630679480073,24451,227539,162597
1630679480083,24417,226525,162565
1630679480093,24475,225994,162324
1630679480103,24720,225978,162809
1630679480113,24941,225690,162806
1630679480123,25213,225629,163142
1630679480133,25444,225930,163694
1630679480143,25627,226327,164206
1630679480153,25728,226604,164485
1630679480163,25730,226791,164328
1630679480173,25676,226770,164211
1630679480183,25603,226637,163998
1630679480193,25539,226563,163781
1630679480203,25477,226306,163536
1630679480213,25427,226118,163343
1630679480223,25371,225983,163161
1630679480233,25289,226084,163183
1630679480243,25132,226542,162877
1630679480253,25114,227282,162205
1630679480263,25239,228261,162168
1630679480273,25571,229331,162885
1630679480283,26180,230851,164133
1630679480293,27092,232921,166492
1630679480303,27820,233923,168479
1630679480313,27931,233608,168579
1630679480323,27743,233452,168243
1630679480333,27420,233423,167796
1630679480343,26918,233029,166960
1630679480353,26318,232445,165751
1630679480363,25851,231777,164753
1630679480373,25559,231255,164114
1630679480383,25389,231059,163794
1630679480393,25303,230860,163654
1630679480403,25295,230848,163708
1630679480413,25311,230770,163714
1630679480423,25304,230625,163637
1630679480433,25223,230393,163368
1630679480443,25063,230062,162847
1630679480453,24770,229477,162034
1630679480463,24393,228504,160755
1630679480473,23864,226971,159476
1630679480483,23385,225104,158318
1630679480493,23188,223540,157962
1630679480503,23022,222473,157886
1630679480513,22948,221864,158079
1630679480523,22974,221714,158306
1630679480533,22925,221636,158455
1630679480543,22776,221059,158053
1630679480553,22608,220429,157614
1630679480563,22568,219905,157433
1630679480573,22543,219431,157169
1630679480583,22577,219087,157282
1630679480593,22606,218723,157356
1630679480603,22667,218199,157207
1630679480613,22741,217665,156931
1630679480623,22857,216950,156500
1630679480633,22849,216295,156014
1630679480643,22655,216281,155782
1630679480653,22412,216723,155665
1630679480663,22331,217339,155783
1630679480673,22359,218221,156225
1630679480683,22605,219427,156947
1630679480693,22986,220656,157792
1630679480703,23227,221375,158266
1630679480713,23174,221240,157927
1630679480723,22992,220756,157347
1630679480733,22806,220243,156765
1630679480743,22761,220109,156688
1630679480753,22972,220657,157320
1630679480763,23341,221693,158309
1630679480773,23849,222983,159357
1630679480783,24398,224462,160333
1630679480793,24882,226154,161257
1630679480803,25404,227787,161843
1630679480813,25918,229459,162706
1630679480823,26506,231445,163547
1630679480833,26975,232978,164780
1630679480843,27273,233961,165376
1630679480853,27491,234826,165799
1630679480863,27864,236046,166623
1630679480873,28141,237118,167421
1630679480883,28485,238240,168221
1630679480893,28860,239378,169041
1630679480903,29276,240621,170123
1630679480913,29696,241892,171508
1630679480923,30091,243067,173033
1630679480933,30284,243759,174002
1630679480943,30429,244146,174754
1630679480953,30497,244370,175408
1630679480963,30544,244717,176125
1630679480973,30579,244924,176741
1630679480983,30711,245243,177248
1630679480993,30817,245598,177707
1630679481003,30951,245981,178178
1630679481013,31044,246229,178296
1630679481023,31080,246423,178538
1630679481033,31113,246507,178622
1630679481043,31174,246455,178771
1630679481053,31375,246343,179242
1630679481063,31655,245789,179776
1630679481073,31835,245357,179802
1630679481083,32008,244213,179892
1630679481093,32112,242388,179220
1630679481103,32154,239690,177815
1630679481113,31752,236424,175148
1630679481123,30978,233158,171540
1630679481133,30218,229294,168283
1630679481143,29429,226227,165332
1630679481153,28943,224186,163251
1630679481163,28591,222981,161968
1630679481173,28331,221607,160592
1630679481183,28224,220229,159490
1630679481193,28220,218629,158194
1630679481203,28323,216357,157059
1630679481213,28615,214727,156773
1630679481223,29073,213867,157317
1630679481233,29552,213681,158212
1630679481243,30009,214540,159055
1630679481253,30304,215842,160450
1630679481263,30507,217282,161687
1630679481273,30619,218676,162852
1630679481283,30658,220002,163947
1630679481293,30583,221345,164828
1630679481303,30457,222998,165926
1630679481313,30323,224596,166878
1630679481323,30211,225719,167513
1630679481333,30066,226845,168012
1630679481343,29836,228313,168698
1630679481353,29595,229870,169242
1630679481363,29228,231578,169689
1630679481373,28822,234008,170369
1630679481383,28521,236217,171209
1630679481393,28264,238012,171881
1630679481403,28112,239084,172255
1630679481413,28105,239658,172811
1630679481423,28309,240036,173503
1630679481433,28743,239471,173761
1630679481443,29315,239182,174274
1630679481453,29460,238471,174013
1630679481463,29633,238044,173961
1630679481473,29794,237845,173997
1630679481483,29939,237843,174205
1630679481493,30060,237970,174502
1630679481503,30244,238156,175021
1630679481513,30420,237844,175315
1630679481523,30612,237225,175393
1630679481533,30489,236107,174550
1630679481543,30034,234751,173230
1630679481553,29700,235016,172828
1630679481563,29369,235248,172464
1630679481573,29207,234587,172030
1630679481583,29154,233023,171278
1630679481593,29246,230785,170289
1630679481603,29427,228482,169109
1630679481613,29555,226446,168475
1630679481623,29628,225920,168252
1630679481633,29749,227271,169128
1630679481643,29836,229790,170734
1630679481653,29848,232755,172530
1630679481663,29748,235539,173701
1630679481673,29400,237313,174350
1630679481683,29015,238260,174783
1630679481693,28490,238724,174790
1630679481703,27961,238939,174175
1630679481713,27431,238733,172917
1630679481723,27097,238725,172116
1630679481733,27062,238896,172296
1630679481743,27121,238725,172165
1630679481753,27285,238851,172720
1630679481763,27464,238860,173177
1630679481773,27632,238859,173770
1630679481783,27791,238891,174379
1630679481793,28105,239018,174998
1630679481803,28336,238816,174961
1630679481813,28529,238208,174811
1630679481823,28527,237417,174295
1630679481833,28268,236707,173785
1630679481843,27766,236097,172984
1630679481853,27536,236109,172857
1630679481863,27514,236480,173230
1630679481873,27691,237114,174081
1630679481883,27896,237684,174895
1630679481893,28118,238171,175788
1630679481903,28366,238585,176564
1630679481913,28597,238873,177026
1630679481923,28764,238796,177327
1630679481933,29002,238609,177505
1630679481943,29245,238258,177743
1630679481953,29518,238076,178373
1630679481963,29796,237912,179113
1630679481973,30046,238228,179744
1630679481983,30185,238322,179991
1630679481993,30207,238508,180170
1630679482003,30210,238737,180288
1630679482013,30284,239089,180569
1630679482023,30456,239497,181082
1630679482033,30666,239886,181742
1630679482043,30966,240295,182554
1630679482053,31361,240607,183394
1630679482063,31793,240443,184170
1630679482073,32118,240135,184366
1630679482083,32105,238617,182800
1630679482093,31882,236242,180613
1630679482103,31315,233010,176598
1630679482113,30711,229147,172828
1630679482123,30256,226314,169758
1630679482133,29879,223644,166885
1630679482143,29736,222067,165189
1630679482153,29813,221375,164967
1630679482163,29940,221340,165160
1630679482173,30080,221601,165669
1630679482183,30161,221818,165861
1630679482193,30211,221875,166270
1630679482203,30210,221736,166368
1630679482213,30157,221432,166170
1630679482223,30105,221076,165857
1630679482233,29925,220758,165393
1630679482243,29788,220687,165467
1630679482253,29898,221768,166616
1630679482263,30316,223635,168873
1630679482273,30874,225628,171449
1630679482283,31423,227390,173731
1630679482293,31995,229181,175745
1630679482303,32318,230180,177106
1630679482313,32387,230299,177362
1630679482323,32016,228796,175713
1630679482333,31436,226561,173336
1630679482343,30743,224191,171052
1630679482353,30096,222195,169549
1630679482363,29614,220779,168110
1630679482373,29217,219822,167179
1630679482383,28999,219367,167017
1630679482393,28902,219215,167149
1630679482403,28895,219321,167471
1630679482413,28909,219455,167807
1630679482423,28939,219595,168100
1630679482433,28949,219629,168330
1630679482443,28971,219622,168535
1630679482453,29015,219539,168572
1630679482463,29039,219440,168502
1630679482473,29102,219396,168646
1630679482483,29204,219397,168785
1630679482493,29298,219469,168878
1630679482503,29382,219539,168941
1630679482513,29432,219626,168984
1630679482523,29539,219865,169353
1630679482533,29674,220224,169957
1630679482543,29741,220617,170612
1630679482553,29922,221412,171857
1630679482563,30282,222924,173749
1630679482573,30704,224828,175717
1630679482583,31265,227114,178188
1630679482593,31884,229607,180476
1630679482603,32460,231724,182338
1630679482613,33127,233873,184432
1630679482623,33539,235326,185886
1630679482633,33689,236171,186724
1630679482643,33822,236986,187744
1630679482653,34028,238434,189223
1630679482663,34458,240438,191409
1630679482673,34829,242157,193418
1630679482683,34979,243444,194343
1630679482693,35113,244569,194660
1630679482703,35225,245448,194758
1630679482713,34969,245763,194092
1630679482723,34397,244886,192030
1630679482733,34055,244637,190715
1630679482743,33866,244434,189937
1630679482753,33781,244333,189501
1630679482763,33738,244398,189172
1630679482773,33694,244461,188801
1630679482783,33705,244611,188687
1630679482793,33680,244683,188528
1630679482803,33711,244869,188636
1630679482813,33827,245315,189015
1630679482823,33994,245822,189538
1630679482833,34156,246369,190092
1630679482843,34335,246898,190720
1630679482853,34519,247538,191360
1630679482863,34464,247543,191309
1630679482873,34054,246802,190315
1630679482883,33394,244896,188345
1630679482893,32829,242474,186488
1630679482903,32333,239420,184057
1630679482913,31928,236534,182214
1630679482923,31470,233703,179598
1630679482933,31170,231217,177448
1630679482943,31086,229327,176163
1630679482953,30912,228197,175190
1630679482963,30819,227566,174924
1630679482973,30686,226940,174227
1630679482983,30635,226142,173630
1630679482993,30420,224750,172433
1630679483003,30013,222766,170529
1630679483013,29490,220445,168077
1630679483023,28842,218406,165542
1630679483033,28318,216754,163758
1630679483043,27935,215793,162734
1630679483053,28023,216922,164088
1630679483063,28721,221117,168968
1630679483073,29755,226344,174625
1630679483083,30771,231267,179098
1630679483093,31813,236031,184050
1630679483103,32794,240445,188337
1630679483113,33266,242501,190480
1630679483123,33018,243223,190281
1630679483133,32573,243212,189360
1630679483143,32195,243262,188585
1630679483153,31954,243368,188128
1630679483163,31889,243591,188081
1630679483173,31833,243757,187948
1630679483183,31752,243812,187745
1630679483193,31678,243825,187540
1630679483203,31587,243839,187313
1630679483213,31521,243924,187017
1630679483223,31515,244065,186971
1630679483233,31494,244291,186913
1630679483243,31464,244353,186753
1630679483253,31491,244591,186829
1630679483263,31487,244795,186919
1630679483273,31459,244920,186917
1630679483283,31386,244909,186813
1630679483293,31245,244794,186618
1630679483303,31076,244610,186466
1630679483313,30885,244377,186256
1630679483323,30691,244150,186040
1630679483333,30472,243898,185774
1630679483343,30274,243603,185502
1630679483353,30099,243422,185306
1630679483363,29954,243236,185127
1630679483373,29827,243077,185037
1630679483383,29726,242954,185013
1630679483393,29600,242766,184858
1630679483403,29550,242649,184846
1630679483413,29492,242527,184721
1630679483423,29420,242366,184597
1630679483433,29366,242253,184468
1630679483443,29345,242224,184473
1630679483453,29380,242275,184551
1630679483463,29356,242221,184469
1630679483473,29349,242187,184322
1630679483483,29349,242250,184317
1630679483493,29371,242307,184394
1630679483503,29403,242376,184430
1630679483513,29437,242419,184487
1630679483523,29485,242631,184631
1630679483533,29548,242706,184755
1630679483543,29608,242849,184836
1630679483553,29693,243028,184951
1630679483563,29784,243223,185090
1630679483573,29846,243333,185138
1630679483583,29879,243414,185165
1630679483593,29884,243469,185156
1630679483603,29900,243518,185112
1630679483613,29924,243558,185126
1630679483623,29956,243689,185199
1630679483633,29995,243762,185249
1630679483643,30031,243914,185330
1630679483653,30062,243984,185365
1630679483663,30062,243996,185394
1630679483673,30033,243948,185347
1630679483683,29979,243870,185312
1630679483693,29920,243798,185368
1630679483703,29884,243759,185401
1630679483713,29862,243714,185488
1630679483723,29850,243657,185577
1630679483733,29848,243630,185678
1630679483743,29846,243633,185717
1630679483753,29832,243577,185790
1630679483763,29814,243509,185825
1630679483773,29821,243495,185827
1630679483783,29812,243423,185877
1630679483793,29827,243389,185900
1630679483803,29853,243431,185969
1630679483813,29878,243450,186030
1630679483823,29927,243554,186145
1630679483833,29981,243641,186276
1630679483843,30032,243738,186424
1630679483853,30081,243763,186535
1630679483863,30154,243880,186687
1630679483873,30243,243968,186961
1630679483883,30295,243946,186993
1630679483893,30326,243927,186957
1630679483903,30413,244048,187064
1630679483913,30494,244156,187205
1630679483923,30608,244373,187388
1630679483933,30760,244586,187708
1630679483943,30920,244802,187995
1630679483953,31082,244965,188202
1630679483963,31191,245026,188188
1630679483973,31268,245074,188162
1630679483983,31349,245181,188177
1630679483993,31415,245249,188213
1630679484003,31471,245311,188239
1630679484013,31487,245301,188156
1630679484023,31514,245335,188084
1630679484033,31562,245437,188116
1630679484043,31610,245518,188127
1630679484053,31634,245564,188238
1630679484063,31623,245584,188263
1630679484073,31580,245544,188304
1630679484083,31514,245419,188270
1630679484093,31438,245314,188227
1630679484103,31363,245169,188111
1630679484113,31292,245072,188047
1630679484123,31224,244997,187958
1630679484133,31175,244940,187913
1630679484143,31144,244879,187900
1630679484153,31117,244849,187916
1630679484163,31104,244837,187923
1630679484173,31105,244866,187963
1630679484183,31116,244859,188009
1630679484193,31146,244871,188053
1630679484203,31178,244908,188119
1630679484213,31209,244922,188156
1630679484223,31233,244992,188205
1630679484233,31268,245004,188229
1630679484243,31301,245024,188303
1630679484253,31328,245096,188362
1630679484263,31364,245125,188428
1630679484273,31391,245118,188500
1630679484283,31445,245064,188567
1630679484293,31518,245066,188690
1630679484303,31596,245098,188739
1630679484313,31654,245129,188738
1630679484323,31726,245225,188877
1630679484333,31822,245365,189069
1630679484343,31936,245508,189275
1630679484353,32043,245638,189423
1630679484363,32151,245711,189472
1630679484373,32256,245664,189358
1630679484383,32321,245651,189047
1630679484393,32381,245656,188829
1630679484403,32441,245706,188738
1630679484413,32469,245745,188705
1630679484423,32492,245704,188635
1630679484433,32464,245643,188577
1630679484443,32406,245539,188492
1630679484453,32349,245402,188422
1630679484463,32293,245245,188351
1630679484473,32254,245224,188365
1630679484483,32226,245123,188318
1630679484493,32195,245084,188308
1630679484503,32161,244996,188230
1630679484513,32126,244862,188201
1630679484523,32105,244794,188131
1630679484533,32069,244731,188066
1630679484543,32049,244640,187964
1630679484553,32034,244594,187901
1630679484563,32000,244533,187867
1630679484573,31975,244473,187801
1630679484583,31964,244419,187786
1630679484593,31963,244382,187763
1630679484603,31948,244355,187723
1630679484613,31915,244233,187685
1630679484623,31891,244221,187643
1630679484633,31880,244140,187620
1630679484643,31863,244028,187588
1630679484653,31862,244028,187597
1630679484663,31872,244013,187627
1630679484673,31890,244001,187648
1630679484683,31910,243933,187672
1630679484693,31975,243893,187724
1630679484703,32061,243831,187705
1630679484713,32128,243829,187693
1630679484723,32202,243921,187740
1630679484733,32226,244011,187810
1630679484743,32307,244099,187950
1630679484753,32365,244208,188072
1630679484763,32498,244401,188234
1630679484773,32589,244321,188080
1630679484783,32625,244225,187862
1630679484793,32659,244242,187805
1630679484803,32659,244258,187736
1630679484813,32628,244184,187636
1630679484823,32580,244155,187540
1630679484833,32554,244104,187517
1630679484843,32544,244076,187507
1630679484853,32554,244070,187563
1630679484863,32553,244227,187616
1630679484873,32545,244186,187630
1630679484883,32532,244215,187608
1630679484893,32482,244178,187539
1630679484903,32434,244107,187395
1630679484913,32384,244014,187294
1630679484923,32336,243957,187158
1630679484933,32303,243877,187112
1630679484943,32282,243873,187094
1630679484953,32279,243849,187085
1630679484963,32292,243944,187140
1630679484973,32323,243936,187247
1630679484983,32370,243978,187307
1630679484993,32416,243996,187362
1630679485003,32439,243974,187412
1630679485013,32454,243952,187410
1630679485023,32459,243898,187371
1630679485033,32466,243861,187348
1630679485043,32467,243785,187369
1630679485053,32469,243740,187380
1630679485063,32487,243696,187379
1630679485073,32517,243614,187445
1630679485083,32564,243485,187382
1630679485093,32555,243143,187073
1630679485103,32534,242959,186812
1630679485113,32530,242877,186764
1630679485123,32589,242974,186938
1630679485133,32696,243040,187195
1630679485143,32811,243084,187395
1630679485153,32909,243090,187480
1630679485163,33007,243074,187536
1630679485173,33071,242777,187457
1630679485183,33153,242643,187470
1630679485193,33170,242551,187512
1630679485203,33184,242331,187532
1630679485213,33149,242109,187403
1630679485223,33110,241870,187289
1630679485233,33149,241673,187238
1630679485243,33192,241464,187127
1630679485253,33206,241368,187102
1630679485263,33242,241307,187069
1630679485273,33297,241266,187103
1630679485283,33339,241254,187164
1630679485293,33390,241160,187098
1630679485303,33376,241024,187066
1630679485313,33441,240950,187000
1630679485323,33444,240908,187048
1630679485333,33459,240793,186848
1630679485343,33460,240745,186807
1630679485353,33480,240750,186847
1630679485363,33491,240794,186943
1630679485373,33515,240780,186987
1630679485383,33537,240752,187046
1630679485393,33552,240654,187052
1630679485403,33570,240546,187105
1630679485413,33592,240524,187188
1630679485423,33645,240473,187243
1630679485433,33691,240544,187453
1630679485443,33791,240653,187682
1630679485453,33917,240822,188045
1630679485463,34103,240975,188485
1630679485473,34368,241107,189012
1630679485483,34611,240946,189080
1630679485493,34770,240842,188950
1630679485503,34791,240917,188791
1630679485513,34822,241090,188817
1630679485523,34896,241167,188922
1630679485533,34988,241168,189037
1630679485543,35033,241004,188808
1630679485553,34981,240578,188284
1630679485563,34797,239786,187576
1630679485573,34524,239096,186764
1630679485583,34264,238641,186287
1630679485593,34132,238414,186056
1630679485603,34104,238259,186029
1630679485613,34153,238180,186081
1630679485623,34231,238123,186141
1630679485633,34279,238131,186233
1630679485643,34310,238172,186258
1630679485653,34331,238172,186360
1630679485663,34363,238272,186425
1630679485673,34386,238406,186505
1630679485683,34396,238545,186570
1630679485693,34423,238707,186687
1630679485703,34425,238616,186633
1630679485713,34413,238632,186636
1630679485723,34416,238579,186637
1630679485733,34440,238644,186743
1630679485743,34412,238622,186857
1630679485753,34429,238585,186880
1630679485763,34404,238664,187000
1630679485773,34394,238573,186973
1630679485783,34399,238574,187138
1630679485793,34459,238597,187218
1630679485803,34453,238443,187270
1630679485813,34494,238537,187374
1630679485823,34511,238536,187391
1630679485833,34558,238555,187514
1630679485843,34703,238620,187754
1630679485853,34883,238516,187951
1630679485863,34993,238188,187808
1630679485873,34963,237903,187349
1630679485883,34978,237835,187230
1630679485893,34982,237925,187324
1630679485903,35084,237979,187631
1630679485913,35220,237998,187897
1630679485923,35242,237701,187923
1630679485933,35272,237370,187865
1630679485943,35231,236816,187582
1630679485953,35171,236390,187350
1630679485963,35115,236258,187358
1630679485973,35082,236206,187388
1630679485983,35056,236163,187419
1630679485993,35029,236131,187433
1630679486003,35021,235970,187364
1630679486013,35007,235900,187251
1630679486023,34961,235906,187143
1630679486033,34920,235903,187067
1630679486043,34861,235935,187007
1630679486053,34810,235996,186981
1630679486063,34772,236009,187036
1630679486073,34734,235968,186972
1630679486083,34727,235958,187035
1630679486093,34741,236080,187182
1630679486103,34757,236183,187309
1630679486113,34785,236295,187498
1630679486123,34787,236415,187623
1630679486133,34786,236462,187728
1630679486143,34789,236577,187830
1630679486153,34806,236651,187966
1630679486163,34837,236764,188076
1630679486173,34897,236858,188236
1630679486183,34955,236971,188367
1630679486193,35012,237130,188513
1630679486203,35086,237392,188637
1630679486213,35176,237662,188860
1630679486223,35324,238007,189152
1630679486233,35513,238427,189557
1630679486243,35782,238802,190040
1630679486253,36118,238985,190354
1630679486263,36333,238958,190285
1630679486273,36421,239279,190248
1630679486283,36541,239811,190465
1630679486293,36746,240314,191117
1630679486303,37051,240717,191913
1630679486313,37303,241014,192521
1630679486323,37430,240928,192628
1630679486333,37490,240684,192426
1630679486343,37512,240444,192240
1630679486353,37533,240473,192308
1630679486363,37541,240567,192466
1630679486373,37598,240600,192609
1630679486383,37641,240438,192589
1630679486393,37637,240144,192462
1630679486403,37708,240096,192528
1630679486413,37752,240162,192623
1630679486423,37779,240223,192658
1630679486433,37775,240245,192701
1630679486443,37714,240138,192557
1630679486453,37610,239967,192337
1630679486463,37438,239676,191926
1630679486473,37220,239373,191464
1630679486483,37004,239100,191103
1630679486493,36787,238976,190765
1630679486503,36635,238940,190572
1630679486513,36445,238887,190396
1630679486523,36273,238758,190149
1630679486533,36082,238667,189980
1630679486543,35993,238634,190011
1630679486553,35955,238668,190139
1630679486563,35934,238717,190207
1630679486573,35922,238649,190301
1630679486583,35920,238616,190385
1630679486593,35912,238553,190417
1630679486603,35918,238527,190397
1630679486613,35893,238523,190469
1630679486623,35916,238528,190486
1630679486633,35942,238557,190586
1630679486643,36031,238533,190709
1630679486653,36141,238327,190738
1630679486663,36255,238011,190694
1630679486673,36293,237749,190617
1630679486683,36274,237612,190553
1630679486693,36211,237576,190657
1630679486703,36211,237542,190801
1630679486713,36238,237451,190943
1630679486723,36283,237272,190962
1630679486733,36315,236883,190798
1630679486743,36342,236312,190429
1630679486753,36336,235798,190039
1630679486763,36340,235724,190021
1630679486773,36383,235920,190280
1630679486783,36385,236025,190398
1630679486793,36376,236067,190474
1630679486803,36362,236077,190490
1630679486813,36335,236115,190468
1630679486823,36317,236187,190459
1630679486833,36286,236207,190440
1630679486843,36262,236331,190463
1630679486853,36245,236349,190469
1630679486863,36217,236446,190487
1630679486873,36168,236517,190486
1630679486883,36126,236592,190524
1630679486893,36068,236627,190558
1630679486903,36012,236730,190554
1630679486913,35956,236780,190568
1630679486923,35904,236852,190600
1630679486933,35865,236880,190631
1630679486943,35824,236895,190621
1630679486953,35791,236913,190623
1630679486963,35793,236919,190662
1630679486973,35805,236902,190668
1630679486983,35815,236932,190671
1630679486993,35808,236906,190672
1630679487003,35819,236948,190640
1630679487013,35836,236983,190695
1630679487023,35874,237018,190781
1630679487033,35937,237105,190899
1630679487043,36077,237183,191191
1630679487053,36355,237319,191686
1630679487063,36654,237145,191991
1630679487073,36686,236658,191705
1630679487083,36573,236406,191405
1630679487093,36438,236400,191284
1630679487103,36374,236434,191374
1630679487113,36409,236426,191557
1630679487123,36477,236334,191616
1630679487133,36543,236147,191561
1630679487143,36637,235842,191388
1630679487153,36679,235603,191133
1630679487163,36684,235521,191098
1630679487173,36720,235495,190991
1630679487183,36673,235429,190943
1630679487193,36696,235368,190900
1630679487203,36732,235377,190904
1630679487213,36751,235431,190913
1630679487223,36748,235494,190864
1630679487233,36743,235562,190849
1630679487243,36735,235769,190883
1630679487253,36689,235813,190829
1630679487263,36604,235915,190757
1630679487273,36519,236022,190716
1630679487283,36434,236080,190626
1630679487293,36336,236127,190591
1630679487303,36251,236147,190559
1630679487313,36175,236177,190539
1630679487323,36084,236202,190563
1630679487333,36036,236303,190595
1630679487343,35980,236339,190647
1630679487353,35949,236402,190667
1630679487363,35946,236484,190710
1630679487373,35931,236476,190754
1630679487383,35928,236553,190782
1630679487393,35915,236548,190774
1630679487403,35895,236592,190801
1630679487413,35899,236724,190899
1630679487423,35946,236805,191058
1630679487433,36020,236822,191280
1630679487443,36154,236735,191561
1630679487453,36265,236464,191729
1630679487463,36300,236204,191697
1630679487473,36279,236090,191641
1630679487483,36226,236151,191700
1630679487493,36245,236253,191906
1630679487503,36307,236243,192082
1630679487513,36404,236140,192115
1630679487523,36519,235942,192141
1630679487533,36633,235717,192108
1630679487543,36725,235592,191997
1630679487553,36793,235649,192064
1630679487563,36844,235780,192143
1630679487573,36854,235851,192173
1630679487583,36853,235845,192096
1630679487593,36841,235810,192015
1630679487603,36831,235804,191976
1630679487613,36802,235850,191911
1630679487623,36744,235902,191862
1630679487633,36675,236002,191845
1630679487643,36608,236083,191821
1630679487653,36546,236154,191862
1630679487663,36503,236253,191848
1630679487673,36471,236361,191885
1630679487683,36440,236485,191955
1630679487693,36411,236571,192054
1630679487703,36376,236677,192065
1630679487713,36330,236806,192039
1630679487723,36268,236798,192014
1630679487733,36198,236827,191927
1630679487743,36119,236885,191859
1630679487753,36086,236940,191826
1630679487763,36060,236919,191857
1630679487773,36047,236897,191851
1630679487783,36033,236891,191884
1630679487793,36014,236918,191895
1630679487803,36007,236912,191941
1630679487813,35964,236942,192026
1630679487823,35918,236836,192140
1630679487833,35893,236765,192289
1630679487843,35984,236667,192577
1630679487853,36151,236525,192937
1630679487863,36305,236263,193053
1630679487873,36395,236119,193051
1630679487883,36403,236158,193098
1630679487893,36388,236301,193189
1630679487903,36428,236313,193293
1630679487913,36492,236284,193327
1630679487923,36617,236167,193483
1630679487933,36774,235904,193480
1630679487943,36818,235616,193234
1630679487953,36831,235521,193117
1630679487963,36835,235571,193078
1630679487973,36846,235510,192968
1630679487983,36865,235471,192851
1630679487993,36874,235452,192719
1630679488003,36921,235537,192708
1630679488013,36929,235688,192738
1630679488023,36953,235855,192803
1630679488033,36964,236067,192850
1630679488043,36944,236268,192914
1630679488053,36907,236446,192940
1630679488063,36851,236640,192954
1630679488073,36794,236752,192920
1630679488083,36712,236797,192892
1630679488093,36625,236959,192855
1630679488103,36552,237028,192872
1630679488113,36476,237158,192901
1630679488123,36424,237311,192997
1630679488133,36392,237435,193120
1630679488143,36347,237532,193240
1630679488153,36344,237628,193300
1630679488163,36350,237675,193390
1630679488173,36353,237672,193446
1630679488183,36335,237655,193465
1630679488193,36260,237638,193474
1630679488203,36154,237504,193496
1630679488213,36046,237425,193544
1630679488223,35979,237385,193590
1630679488233,35940,237297,193623
1630679488243,35961,237242,193766
1630679488253,36069,237098,193980
1630679488263,36212,236855,194010
1630679488273,36308,236553,193803
1630679488283,36357,236407,193737
1630679488293,36380,236537,193864
1630679488303,36436,236687,193985
1630679488313,36490,236765,194098
1630679488323,36561,236766,194060
1630679488333,36611,236462,193859
1630679488343,36637,235871,193256
1630679488353,36631,235489,192807
1630679488363,36696,235670,192805
1630679488373,36762,235973,193024
1630679488383,36789,236254,193093
1630679488393,36777,236353,193088
1630679488403,36739,236396,192979
1630679488413,36713,236535,192922
1630679488423,36694,236715,192934
1630679488433,36654,236940,192990
1630679488443,36611,237199,193074
1630679488453,36561,237399,193189
1630679488463,36522,237610,193278
1630679488473,36494,237814,193439
1630679488483,36468,238038,193554
1630679488493,36430,238245,193670
1630679488503,36399,238368,193760
1630679488513,36354,238542,193836
1630679488523,36311,238691,193867
1630679488533,36269,238880,193869
1630679488543,36238,239003,193847
1630679488553,36213,239180,193889
1630679488563,36207,239305,193962
1630679488573,36188,239382,194024
1630679488583,36122,239361,194078
1630679488593,36050,239361,194103
1630679488603,35972,239369,194149
1630679488613,35924,239389,194249
1630679488623,35900,239373,194312
1630679488633,35914,239389,194395
1630679488643,35974,239398,194495
1630679488653,36094,239222,194541
1630679488663,36225,238882,194428
1630679488673,36288,238584,194155
1630679488683,36332,238643,194131
1630679488693,36372,238872,194316
1630679488703,36432,238963,194519
1630679488713,36527,239006,194654
1630679488723,36629,238928,194635
1630679488733,36714,238497,194366
1630679488743,36712,238042,193892
1630679488753,36735,238014,193732
1630679488763,36779,238174,193807
1630679488773,36821,238213,193766
1630679488783,36843,238194,193712
1630679488793,36878,238184,193607
1630679488803,36889,238182,193515
1630679488813,36918,238232,193453
1630679488823,36921,238392,193486
1630679488833,36945,238612,193564
1630679488843,36959,238855,193679
1630679488853,36939,239156,193800
1630679488863,36900,239350,193849
1630679488873,36830,239524,193870
1630679488883,36750,239674,193875
1630679488893,36641,239791,193856
1630679488903,36546,239992,193851
1630679488913,36444,240094,193832
1630679488923,36336,240169,193772
1630679488933,36249,240272,193683
1630679488943,36146,240351,193754
1630679488953,36056,240481,193774
1630679488963,35946,240488,193795
1630679488973,35800,240406,193738
1630679488983,35673,240294,193725
1630679488993,35567,240255,193661
1630679489003,35480,240211,193618
1630679489013,35410,240221,193631
1630679489023,35359,240260,193610
1630679489033,35320,240313,193624
1630679489043,35310,240359,193699
1630679489053,35340,240367,193795
1630679489063,35407,240297,193884
1630679489073,35476,240183,193918
1630679489083,35506,239995,193740
1630679489093,35479,239904,193547
1630679489103,35465,240000,193553
1630679489113,35486,240192,193661
1630679489123,35535,240304,193756
1630679489133,35593,240337,193761
1630679489143,35615,240216,193668
1630679489153,35629,239816,193267
1630679489163,35616,239504,192855
1630679489173,35654,239583,192744
1630679489183,35676,239722,192744
1630679489193,35669,239837,192717
1630679489203,35616,239881,192603
1630679489213,35555,239916,192502
1630679489223,35518,239946,192467
1630679489233,35496,240046,192438
1630679489243,35477,240192,192492
1630679489253,35457,240332,192499
1630679489263,35432,240546,192564
1630679489273,35400,240725,192615
1630679489283,35388,240916,192676
1630679489293,35371,241101,192727
1630679489303,35372,241264,192817
1630679489313,35346,241452,192890
1630679489323,35318,241600,192963
1630679489333,35247,241733,193040
1630679489343,35103,241756,192943
1630679489353,34926,241696,192836
1630679489363,34777,241567,192689
1630679489373,34647,241467,192660
1630679489383,34567,241362,192593
1630679489393,34509,241239,192533
1630679489403,34450,241142,192497
1630679489413,34411,241150,192436
1630679489423,34399,241100,192490
1630679489433,34393,241104,192580
1630679489443,34420,241117,192656
1630679489453,34469,241160,192808
1630679489463,34552,241161,192957
1630679489473,34668,241041,193062
1630679489483,34775,240668,192943
1630679489493,34822,240411,192716
1630679489503,34815,240411,192603
1630679489513,34824,240532,192708
1630679489523,34897,240699,192912
1630679489533,34993,240885,193064
1630679489543,35081,240864,193112
1630679489553,35191,240638,193044
1630679489563,35208,240216,192637
1630679489573,35189,239998,192361
1630679489583,35226,240045,192376
1630679489593,35259,240075,192379
1630679489603,35271,240115,192344
1630679489613,35272,240114,192263
1630679489623,35272,240178,192213
1630679489633,35278,240213,192183
1630679489643,35303,240420,192226
1630679489653,35331,240566,192303
1630679489663,35335,240810,192376
1630679489673,35327,241035,192440
1630679489683,35289,241216,192438
1630679489693,35237,241338,192440
1630679489703,35171,241476,192373
1630679489713,35085,241629,192363
1630679489723,34958,241644,192282
1630679489733,34801,241586,192202
1630679489743,34667,241624,192216
1630679489753,34568,241612,192282
1630679489763,34489,241675,192364
1630679489773,34442,241684,192436
1630679489783,34421,241766,192498
1630679489793,34421,241763,192562
1630679489803,34413,241727,192584
1630679489813,34395,241741,192587
1630679489823,34379,241749,192603
1630679489833,34370,241802,192652
1630679489843,34381,241855,192698
1630679489853,34399,241857,192781
1630679489863,34456,241915,192847
1630679489873,34551,242007,193012
1630679489883,34662,241915,193118
1630679489893,34766,241804,193121
1630679489903,34848,241904,193090
1630679489913,34895,242145,193224
1630679489923,34979,242464,193396
1630679489933,35093,242737,193554
1630679489943,35154,242887,193569
1630679489953,35168,242871,193419
1630679489963,35189,242715,193205
1630679489973,35198,242646,192884
1630679489983,35286,242806,192923
1630679489993,35382,243133,193073
1630679490003,35436,243345,193126
1630679490013,35446,243500,193086
1630679490023,35451,243554,193011
1630679490033,35466,243684,192993
1630679490043,35496,243814,193022
1630679490053,35501,244010,193052
1630679490063,35510,244271,193103
1630679490073,35499,244416,193172
1630679490083,35484,244563,193211
1630679490093,35466,244792,193331
1630679490103,35422,244829,193429
1630679490113,35310,244827,193480
1630679490123,35198,244803,193495
1630679490133,35095,244796,193537
1630679490143,35002,244735,193579
1630679490153,34906,244701,193565
1630679490163,34820,244645,193492
1630679490173,34739,244604,193405
1630679490183,34662,244468,193313
1630679490193,34599,244397,193238
1630679490203,34542,244299,193145
1630679490213,34503,244269,193096
1630679490223,34475,244244,193104
1630679490233,34447,244268,193112
1630679490243,34449,244275,193130
1630679490253,34441,244277,193153
1630679490263,34464,244343,193154
1630679490273,34481,244306,193196
1630679490283,34499,244171,193095
1630679490293,34516,243980,192909
1630679490303,34531,244009,192826
1630679490313,34544,244250,192898
1630679490323,34574,244362,192984
1630679490333,34627,244506,193111
1630679490343,34679,244562,193141
1630679490353,34715,244493,193067
1630679490363,34744,244393,192885
1630679490373,34745,244332,192714
1630679490383,34782,244375,192703
1630679490393,34792,244431,192707
1630679490403,34797,244409,192631
1630679490413,34790,244341,192510
1630679490423,34793,244345,192451
1630679490433,34798,244319,192389
1630679490443,34791,244266,192336
1630679490453,34767,244223,192267
1630679490463,34741,244194,192187
1630679490473,34696,244178,192086
1630679490483,34600,244161,191981
1630679490493,34471,244037,191834
1630679490503,34332,243882,191724
1630679490513,34207,243841,191634
1630679490523,34102,243775,191585
1630679490533,33995,243746,191548
1630679490543,33918,243666,191516
1630679490553,33834,243633,191422
1630679490563,33763,243587,191390
1630679490573,33709,243572,191387
1630679490583,33683,243587,191379
1630679490593,33673,243563,191432
1630679490603,33694,243534,191495
1630679490613,33712,243536,191545
1630679490623,33712,243552,191568
1630679490633,33711,243496,191562
1630679490643,33700,243482,191561
1630679490653,33691,243388,191541
1630679490663,33684,243302,191549
1630679490673,33733,243171,191614
1630679490683,33781,243026,191638
1630679490693,33792,242886,191567
1630679490703,33788,242875,191504
1630679490713,33785,242911,191510
1630679490723,33774,242969,191564
1630679490733,33775,242980,191514
1630679490743,33764,242936,191443
1630679490753,33746,242797,191331
1630679490763,33737,242618,191113
1630679490773,33763,242612,191104
1630679490783,33788,242734,191072
1630679490793,33772,242764,191010
1630679490803,33750,242849,191039
1630679490813,33754,242942,191038
1630679490823,33790,243068,191132
1630679490833,33838,243253,191254
1630679490843,33896,243572,191416
1630679490853,33933,243809,191543
1630679490863,33947,244092,191700
1630679490873,33924,244332,191870
1630679490883,33919,244679,192045
1630679490893,33918,245079,192215
1630679490903,33896,245562,192417
1630679490913,33891,245913,192547
1630679490923,33893,246357,192695
1630679490933,33911,246752,192883
1630679490943,33924,247207,193072
1630679490953,33942,247517,193237
1630679490963,33970,247841,193372
1630679490973,33992,248117,193532
1630679490983,34036,248442,193699
1630679490993,34080,248626,193818
1630679491003,34124,248867,193934
1630679491013,34176,249092,194099
1630679491023,34231,249248,194215
1630679491033,34285,249407,194346
1630679491043,34350,249512,194499
1630679491053,34428,249624,194627
1630679491063,34492,249630,194711
1630679491073,34528,249580,194719
1630679491083,34551,249352,194588
1630679491093,34611,249226,194503
1630679491103,34769,249404,194702
1630679491113,34926,249771,195035
1630679491123,35011,249944,195264
1630679491133,35098,250088,195466
1630679491143,35178,250105,195525
1630679491153,35235,250096,195483
1630679491163,35267,249856,195250
1630679491173,35279,249680,194944
1630679491183,35327,249704,194877
1630679491193,35354,249736,194800
1630679491203,35357,249724,194708
1630679491213,35340,249717,194561
1630679491223,35316,249679,194476
1630679491233,35266,249638,194345
1630679491243,35200,249522,194241
1630679491253,35115,249506,194223
1630679491263,35038,249490,194200
1630679491273,34935,249480,194172
1630679491283,34817,249474,194117
1630679491293,34688,249417,193983
1630679491303,34540,249310,193846
1630679491313,34393,249201,193669
1630679491323,34248,249094,193493
1630679491333,34133,249010,193340
1630679491343,34028,248948,193234
1630679491353,33945,248931,193196
1630679491363,33876,248873,193130
1630679491373,33810,248827,193044
1630679491383,33747,248756,192966
1630679491393,33703,248643,192872
1630679491403,33683,248539,192773
1630679491413,33652,248497,192754
1630679491423,33631,248440,192703
1630679491433,33619,248431,192703
1630679491443,33603,248378,192719
1630679491453,33603,248424,192762
1630679491463,33624,248364,192826
1630679491473,33658,248381,192876
1630679491483,33686,248220,192883
1630679491493,33733,248000,192858
1630679491503,33806,247913,192811
1630679491513,33875,247906,192806
1630679491523,33929,247985,192870
1630679491533,33978,248048,192970
1630679491543,34013,248079,193002
1630679491553,34017,248005,192911
1630679491563,34037,247793,192735
1630679491573,34012,247573,192487
1630679491583,34055,247596,192462
1630679491593,34161,247752,192597
1630679491603,34216,247874,192673
1630679491613,34190,247907,192655
1630679491623,34105,247772,192532
1630679491633,33999,247593,192409
1630679491643,33915,247472,192330
1630679491653,33837,247359,192264
1630679491663,33748,247307,192165
1630679491673,33673,247214,192118
1630679491683,33616,247166,192093
1630679491693,33571,247178,192082
1630679491703,33552,247127,192149
1630679491713,33545,247189,192144
1630679491723,33524,247208,192170
1630679491733,33508,247164,192209
1630679491743,33489,247149,192209
1630679491753,33463,247089,192142
1630679491763,33444,247045,192129
1630679491773,33425,246998,192084
1630679491783,33394,246935,192009
1630679491793,33373,246875,191961
1630679491803,33339,246809,191880
1630679491813,33321,246734,191876
1630679491823,33315,246723,191894
1630679491833,33315,246685,191922
1630679491843,33322,246642,191981
1630679491853,33324,246659,192011
1630679491863,33341,246631,192071
1630679491873,33365,246581,192129
1630679491883,33393,246456,192140
1630679491893,33424,246262,192063
1630679491903,33500,246174,191980
1630679491913,33562,246199,192056
1630679491923,33618,246429,192200
1630679491933,33705,246549,192421
1630679491943,33804,246737,192614
1630679491953,33875,246740,192667
1630679491963,33946,246632,192600
1630679491973,33982,246551,192524
1630679491983,34003,246575,192470
1630679491993,34012,246626,192515
1630679492003,33980,246681,192539
1630679492013,33938,246714,192530
1630679492023,33900,246736,192508
1630679492033,33853,246751,192433
1630679492043,33855,246836,192443
1630679492053,33844,246848,192484
1630679492063,33850,246935,192520
1630679492073,33839,247049,192560
1630679492083,33815,247070,192536
1630679492093,33756,247015,192489
1630679492103,33693,246983,192384
1630679492113,33629,246977,192302
1630679492123,33565,246927,192259
1630679492133,33509,246931,192202
1630679492143,33472,246914,192206
1630679492153,33455,246938,192223
1630679492163,33454,246939,192268
1630679492173,33416,246973,192251
1630679492183,33380,246971,192244
1630679492193,33358,246940,192215
1630679492203,33332,246931,192210
1630679492213,33336,246915,192238
1630679492223,33327,246852,192233
1630679492233,33329,246821,192274
1630679492243,33324,246840,192251
1630679492253,33318,246817,192266
1630679492263,33315,246754,192311
1630679492273,33317,246720,192274
1630679492283,33332,246602,192279
1630679492293,33364,246448,192223
1630679492303,33421,246335,192190
1630679492313,33453,246391,192178
1630679492323,33466,246414,192174
1630679492333,33508,246530,192286
1630679492343,33550,246586,192315
1630679492353,33528,246462,192212
1630679492363,33450,246201,191938
1630679492373,33340,245859,191685
1630679492383,33327,245784,191642
1630679492393,33352,245822,191764
1630679492403,33338,245865,191776
1630679492413,33276,245766,191665
1630679492423,33207,245647,191523
1630679492433,33159,245565,191429
1630679492443,33126,245555,191333
1630679492453,33109,245489,191329
1630679492463,33101,245566,191330
1630679492473,33084,245613,191331
1630679492483,33069,245660,191361
1630679492493,33060,245748,191400
1630679492503,33053,245798,191436
1630679492513,33074,245870,191495
1630679492523,33081,245915,191544
1630679492533,33101,246005,191609
1630679492543,33098,246034,191639
1630679492553,33099,246063,191648
1630679492563,33085,246102,191658
1630679492573,33068,246056,191622
1630679492583,33040,246070,191583
1630679492593,33002,246015,191521
1630679492603,32987,245961,191496
1630679492613,32963,245909,191457
1630679492623,32956,245832,191462
1630679492633,32950,245894,191481
1630679492643,32968,245930,191537
1630679492653,32988,245935,191601
1630679492663,33033,245963,191717
1630679492673,33067,245993,191719
1630679492683,33103,245945,191748
1630679492693,33153,245774,191696
1630679492703,33207,245615,191623
1630679492713,33269,245677,191627
1630679492723,33301,245773,191727
1630679492733,33321,245885,191892
1630679492743,33347,245962,192096
1630679492753,33373,245933,192218
1630679492763,33401,245794,192299
1630679492773,33407,245626,192143
1630679492783,33378,245456,191971
1630679492793,33385,245464,191942
1630679492803,33392,245480,191914
1630679492813,33387,245501,191903
1630679492823,33391,245505,191861
1630679492833,33383,245509,191777
1630679492843,33409,245576,191790
1630679492853,33434,245634,191811
1630679492863,33462,245709,191890
1630679492873,33500,245817,191928
1630679492883,33512,245898,191924
1630679492893,33503,245968,191904
1630679492903,33482,246023,191834
1630679492913,33457,246094,191834
1630679492923,33443,246168,191811
1630679492933,33422,246154,191808
1630679492943,33410,246239,191819
1630679492953,33387,246280,191823
1630679492963,33364,246325,191850
1630679492973,33336,246325,191854
1630679492983,33298,246308,191832
1630679492993,33256,246317,191768
1630679493003,33216,246245,191686
1630679493013,33218,246252,191692
1630679493023,33218,246220,191718
1630679493033,33229,246250,191763
1630679493043,33240,246289,191778
1630679493053,33258,246306,191808
1630679493063,33267,246287,191858
1630679493073,33269,246270,191846
1630679493083,33277,246259,191887
1630679493093,33258,246179,191860
1630679493103,33192,245962,191712
1630679493113,33144,245662,191593
1630679493123,33128,245500,191562
1630679493133,33116,245504,191594
1630679493143,33118,245565,191718
1630679493153,33142,245582,191832
1630679493163,33161,245562,191755
1630679493173,33103,245340,191489
1630679493183,33002,245027,191121
1630679493193,33006,244951,191016
1630679493203,33105,245124,191219
1630679493213,33161,245184,191326
1630679493223,33133,245193,191236
1630679493233,33116,245178,191156
1630679493243,33110,245191,191076
1630679493253,33114,245221,191035
1630679493263,33112,245261,190979
1630679493273,33118,245333,190975
1630679493283,33113,245389,190944
1630679493293,33098,245426,190930
1630679493303,33092,245540,190947
1630679493313,33094,245563,190965
1630679493323,33099,245632,191008
1630679493333,33097,245676,191063
1630679493343,33099,245767,191065
1630679493353,33089,245788,191103
1630679493363,33077,245852,191116
1630679493373,33061,245822,191130
1630679493383,33050,245842,191141
1630679493393,33039,245843,191121
1630679493403,33034,245852,191106
1630679493413,33033,245853,191079
1630679493423,33045,245862,191063
1630679493433,33048,245824,191091
1630679493443,33085,245902,191179
1630679493453,33108,245988,191244
1630679493463,33167,246049,191384
1630679493473,33203,246068,191550
1630679493483,33231,246096,191702
1630679493493,33254,246069,191841
1630679493503,33286,245930,191983
1630679493513,33327,245622,191978
1630679493523,33392,245549,191982
1630679493533,33382,245582,191943
1630679493543,33371,245692,191988
1630679493553,33413,245821,192091
1630679493563,33501,245899,192236
1630679493573,33562,245858,192282
1630679493583,33561,245747,192104
1630679493593,33527,245594,191850
1630679493603,33563,245690,191876
1630679493613,33632,245861,191929
1630679493623,33660,246028,191911
1630679493633,33677,246112,191868
1630679493643,33681,246224,191819
1630679493653,33724,246335,191820
1630679493663,33762,246439,191847
1630679493673,33807,246620,191944
1630679493683,33858,246788,192061
1630679493693,33886,246925,192138
1630679493703,33892,247029,192178
1630679493713,33892,247130,192224
1630679493723,33858,247174,192160
1630679493733,33822,247224,192160
1630679493743,33782,247254,192103
1630679493753,33756,247282,192105
1630679493763,33749,247333,192136
1630679493773,33742,247402,192160
1630679493783,33734,247435,192193
1630679493793,33716,247498,192183
1630679493803,33697,247559,192214
1630679493813,33701,247532,192209
1630679493823,33708,247633,192188
1630679493833,33698,247603,192273
1630679493843,33676,247608,192256
1630679493853,33608,247563,192273
1630679493863,33547,247480,192267
1630679493873,33491,247453,192261
1630679493883,33442,247387,192262
1630679493893,33421,247328,192260
1630679493903,33410,247203,192190
1630679493913,33386,247024,192033
1630679493923,33408,246909,191924
1630679493933,33467,246988,191940
1630679493943,33512,247086,192021
1630679493953,33560,247227,192138
1630679493963,33603,247406,192198
1630679493973,33631,247360,192130
1630679493983,33594,247141,191866
1630679493993,33549,246973,191400
1630679494003,33615,247100,191384
1630679494013,33761,247463,191626
1630679494023,33845,247642,191719
1630679494033,33875,247749,191692
1630679494043,33870,247763,191627
1630679494053,33852,247807,191551
1630679494063,33865,247845,191545
1630679494073,33897,247924,191597
1630679494083,33921,247999,191737
1630679494093,33939,248154,191825
1630679494103,33950,248300,191924
1630679494113,33953,248435,192001
1630679494123,33965,248448,192088
1630679494133,33977,248613,192166
1630679494143,33968,248694,192255
1630679494153,33980,248713,192269
1630679494163,33955,248706,192299
1630679494173,33930,248704,192278
1630679494183,33880,248690,192175
1630679494193,33829,248605,192071
1630679494203,33762,248518,192006
1630679494213,33683,248372,191920
1630679494223,33591,248235,191821
1630679494233,33521,248090,191816
1630679494243,33471,248031,191834
1630679494253,33444,247910,191888
1630679494263,33419,247901,191917
1630679494273,33407,247825,191964
1630679494283,33386,247772,191953
1630679494293,33379,247723,191974
1630679494303,33368,247615,191906
1630679494313,33330,247422,191695
1630679494323,33307,247170,191436
1630679494333,33358,247056,191361
1630679494343,33405,247109,191413
1630679494353,33463,247286,191578
1630679494363,33530,247447,191721
1630679494373,33585,247477,191750
1630679494383,33627,247474,191666
1630679494393,33635,247337,191422
1630679494403,33630,247213,191157
1630679494413,33707,247384,191207
1630679494423,33797,247626,191281
1630679494433,33860,247778,191365
1630679494443,33891,247924,191375
1630679494453,33917,248064,191347
1630679494463,33954,248094,191360
1630679494473,33990,248223,191407
1630679494483,34031,248381,191526
1630679494493,34094,248587,191660
1630679494503,34133,248732,191797
1630679494513,34152,248835,191863
1630679494523,34140,248855,191861
1630679494533,34134,248874,191828
1630679494543,34100,248893,191775
1630679494553,34075,248894,191812
1630679494563,34043,248919,191768
1630679494573,34030,248892,191830
1630679494583,33982,248858,191837
1630679494593,33911,248748,191800
1630679494603,33810,248661,191776
1630679494613,33721,248503,191675
1630679494623,33636,248404,191644
1630679494633,33585,248206,191581
1630679494643,33527,248140,191557
1630679494653,33483,248007,191507
1630679494663,33456,247923,191467
1630679494673,33412,247828,191452
1630679494683,33367,247699,191356
1630679494693,33331,247583,191315
1630679494703,33307,247417,191277
1630679494713,33311,247203,191228
1630679494723,33317,246915,191077
1630679494733,33371,246817,191080
1630679494743,33414,246887,191106
1630679494753,33451,246907,191172
1630679494763,33477,246906,191214
1630679494773,33479,246836,191169
1630679494783,33452,246641,190964
1630679494793,33424,246453,190729
1630679494803,33431,246351,190580
1630679494813,33489,246479,190630
1630679494823,33511,246526,190611
1630679494833,33506,246572,190565
1630679494843,33518,246631,190556
1630679494853,33534,246691,190576
1630679494863,33555,246729,190557
1630679494873,33539,246745,190560
1630679494883,33509,246812,190535
1630679494893,33480,246896,190519
1630679494903,33442,246893,190533
1630679494913,33398,246931,190490
1630679494923,33374,246991,190469
1630679494933,33360,247090,190465
1630679494943,33332,247124,190432
1630679494953,33295,247097,190428
1630679494963,33218,247019,190316
1630679494973,33162,246970,190309
1630679494983,33093,246900,190240
1630679494993,33006,246829,190125
1630679495003,32937,246783,190064
1630679495013,32892,246729,190029
1630679495023,32869,246712,190046
1630679495033,32868,246747,190063
1630679495043,32856,246722,190090
1630679495053,32852,246712,190095
1630679495063,32852,246733,190083
1630679495073,32845,246725,190109
1630679495083,32833,246720,190103
1630679495093,32832,246662,190103
1630679495103,32850,246708,190186
1630679495113,32899,246683,190289
1630679495123,32971,246613,190368
1630679495133,33041,246536,190399
1630679495143,33057,246597,190390
1630679495153,33063,246699,190434
1630679495163,33118,246852,190546
1630679495173,33186,246994,190674
1630679495183,33246,247013,190732
1630679495193,33298,246977,190718
1630679495203,33328,246904,190690
1630679495213,33345,246934,190601
1630679495223,33382,247028,190604
1630679495233,33405,247074,190552
1630679495243,33408,247154,190483
1630679495253,33394,247182,190406
1630679495263,33375,247198,190246
1630679495273,33317,247201,190076
1630679495283,33292,247247,189969
1630679495293,33264,247332,189872
1630679495303,33240,247428,189822
1630679495313,33226,247524,189827
1630679495323,33192,247557,189782
1630679495333,33146,247634,189758
1630679495343,33095,247613,189726
1630679495353,33055,247680,189730
1630679495363,33036,247706,189763
1630679495373,33013,247769,189836
1630679495383,33015,247883,189899
1630679495393,33024,247996,190042
1630679495403,33049,248074,190139
1630679495413,33077,248171,190246
1630679495423,33097,248219,190295
1630679495433,33105,248182,190316
1630679495443,33103,248199,190332
1630679495453,33114,248204,190342
1630679495463,33136,248227,190413
1630679495473,33153,248261,190414
1630679495483,33166,248277,190455
1630679495493,33162,248268,190434
1630679495503,33156,248224,190407
1630679495513,33126,248117,190306
1630679495523,33105,248015,190190
1630679495533,33089,247841,190071
1630679495543,33110,247804,190054
1630679495553,33125,247788,190062
1630679495563,33119,247821,190082
1630679495573,33161,247911,190148
1630679495583,33185,247940,190182
1630679495593,33212,247948,190121
1630679495603,33264,247917,190143
1630679495613,33331,247959,190153
1630679495623,33404,248029,190215
1630679495633,33449,248130,190243
1630679495643,33479,248188,190282
1630679495653,33493,248232,190282
1630679495663,33471,248261,190224
1630679495673,33442,248236,190145
1630679495683,33389,248232,190029
1630679495693,33312,248172,189952
1630679495703,33216,248118,189864
1630679495713,33134,248066,189743
1630679495723,33058,248115,189669
1630679495733,32998,248093,189605
1630679495743,32938,248064,189544
1630679495753,32890,248008,189460
1630679495763,32829,248001,189381
1630679495773,32766,247905,189287
1630679495783,32709,247868,189227
1630679495793,32691,247927,189256
1630679495803,32675,247949,189300
1630679495813,32694,248034,189384
1630679495823,32724,248092,189481
1630679495833,32750,248174,189562
1630679495843,32784,248206,189628
1630679495853,32816,248261,189674
1630679495863,32844,248285,189765
1630679495873,32871,248382,189844
1630679495883,32897,248365,189898
1630679495893,32914,248376,189936
1630679495903,32927,248409,189945
1630679495913,32966,248322,189987
1630679495923,33055,248293,190054
1630679495933,33141,248272,190105
1630679495943,33219,248328,190162
1630679495953,33303,248504,190374
1630679495963,33417,248693,190613
1630679495973,33513,248814,190759
1630679495983,33555,248778,190699
1630679495993,33569,248702,190570
1630679496003,33576,248560,190420
1630679496013,33586,248531,190318
1630679496023,33657,248713,190416
1630679496033,33713,248818,190511
1630679496043,33729,248867,190522
1630679496053,33723,248888,190487
1630679496063,33705,248924,190510
1630679496073,33687,248969,190526
1630679496083,33695,248981,190558
1630679496093,33698,249052,190686
1630679496103,33698,249119,190735
1630679496113,33659,249106,190768
1630679496123,33626,249122,190758
1630679496133,33590,249111,190742
1630679496143,33548,249120,190752
1630679496153,33502,249091,190738
1630679496163,33474,249108,190756
1630679496173,33458,249134,190763
1630679496183,33446,249150,190793
1630679496193,33431,249168,190808
1630679496203,33423,249208,190848
1630679496213,33417,249200,190876
1630679496223,33405,249183,190898
1630679496233,33398,249218,190911
1630679496243,33400,249168,190919
1630679496253,33415,249257,190929
1630679496263,33404,249214,190961
1630679496273,33424,249232,190983
1630679496283,33416,249218,191015
1630679496293,33410,249192,190986
1630679496303,33398,249112,191000
1630679496313,33392,249050,190945
1630679496323,33399,248950,190879
1630679496333,33421,248822,190790
1630679496343,33464,248719,190773
1630679496353,33497,248768,190796
1630679496363,33527,248839,190902
1630679496373,33573,248885,190977
1630679496383,33594,248907,191003
1630679496393,33599,248961,190917
1630679496403,33602,248884,190754
1630679496413,33557,248729,190576
1630679496423,33566,248662,190515
1630679496433,33590,248744,190618
1630679496443,33580,248782,190592
1630679496453,33552,248789,190603
1630679496463,33543,248832,190611
1630679496473,33548,248809,190658
1630679496483,33550,248825,190666
1630679496493,33530,248855,190674
1630679496503,33498,248839,190659
1630679496513,33461,248813,190650
1630679496523,33426,248779,190614
1630679496533,33381,248762,190579
1630679496543,33335,248791,190557
1630679496553,33314,248782,190561
1630679496563,33294,248761,190616
1630679496573,33315,248856,190635
1630679496583,33309,248913,190697
1630679496593,33315,248966,190791
1630679496603,33317,248997,190822
1630679496613,33346,249046,190921
1630679496623,33355,249108,190968
1630679496633,33362,249093,191013
1630679496643,33369,249142,191065
1630679496653,33383,249164,191105
1630679496663,33395,249189,191159
1630679496673,33410,249169,191215
1630679496683,33430,249256,191303
1630679496693,33444,249293,191364
1630679496703,33483,249336,191412
1630679496713,33496,249276,191456
1630679496723,33574,249321,191537
1630679496733,33645,249249,191561
1630679496743,33737,249217,191570
1630679496753,33800,249331,191638
1630679496763,33824,249405,191792
1630679496773,33865,249527,191999
1630679496783,33880,249575,192130
1630679496793,33893,249592,192165
1630679496803,33923,249431,192157
1630679496813,33910,249299,191957
1630679496823,33870,249162,191793
1630679496833,33870,249251,191828
1630679496843,33899,249292,191908
1630679496853,33912,249341,191902
1630679496863,33904,249392,191896
1630679496873,33913,249432,191895
1630679496883,33934,249523,191944
1630679496893,33971,249676,191976
1630679496903,33988,249733,192065
1630679496913,34003,249809,192081
1630679496923,33993,249899,192130
1630679496933,33970,249912,192109
1630679496943,33935,249952,192048
1630679496953,33908,249944,192006
1630679496963,33877,249996,192001
1630679496973,33845,249942,192007
1630679496983,33828,250058,192034
1630679496993,33804,250051,192060
1630679497003,33790,250076,192089
1630679497013,33772,250117,192137
1630679497023,33743,250121,192134
1630679497033,33721,250120,192160
1630679497043,33712,250141,192176
1630679497053,33720,250099,192159
1630679497063,33709,250104,192203
1630679497073,33700,250118,192221
1630679497083,33703,250118,192192
1630679497093,33678,250161,192204
1630679497103,33692,250193,192251
1630679497113,33700,250143,192335
1630679497123,33683,250097,192349
1630679497133,33668,249935,192357
1630679497143,33676,249767,192365
1630679497153,33677,249670,192380
1630679497163,33646,249629,192390
1630679497173,33644,249626,192455
1630679497183,33643,249630,192469
1630679497193,33622,249597,192394
1630679497203,33584,249401,192211
1630679497213,33535,249227,191879
1630679497223,33514,249072,191710
1630679497233,33580,249146,191845
1630679497243,33605,249235,191908
1630679497253,33591,249229,191858
1630679497263,33584,249273,191848
1630679497273,33583,249297,191817
1630679497283,33598,249325,191812
1630679497293,33603,249355,191827
1630679497303,33597,249406,191768
1630679497313,33579,249387,191719
1630679497323,33561,249460,191709
1630679497333,33533,249429,191668
1630679497343,33495,249446,191664
1630679497353,33458,249482,191660
1630679497363,33417,249461,191623
1630679497373,33373,249357,191585
1630679497383,33333,249333,191548
1630679497393,33309,249313,191562
1630679497403,33280,249381,191563
1630679497413,33245,249378,191569
1630679497423,33239,249405,191587
1630679497433,33228,249378,191555
1630679497443,33227,249439,191566
1630679497453,33215,249394,191535
1630679497463,33206,249391,191559
1630679497473,33155,249314,191554
1630679497483,33068,249162,191499
1630679497493,32985,249074,191488
1630679497503,32914,248981,191466
1630679497513,32892,248882,191510
1630679497523,32885,248779,191563
1630679497533,32948,248683,191673
1630679497543,33000,248596,191741
1630679497553,33086,248605,191850
1630679497563,33126,248647,191945
1630679497573,33162,248754,192078
1630679497583,33257,248804,192296
1630679497593,33333,248895,192401
1630679497603,33387,248847,192441
1630679497613,33393,248658,192219
1630679497623,33370,248552,191990
1630679497633,33361,248422,191854
1630679497643,33392,248497,191883
1630679497653,33411,248486,191824
1630679497663,33405,248494,191773
1630679497673,33397,248511,191679
1630679497683,33408,248581,191653
1630679497693,33445,248622,191699
1630679497703,33482,248718,191755
1630679497713,33504,248848,191802
1630679497723,33525,248926,191823
1630679497733,33517,248918,191821
1630679497743,33483,248933,191777
1630679497753,33427,248871,191696
1630679497763,33370,248875,191575
1630679497773,33295,248819,191488
1630679497783,33248,248827,191455
1630679497793,33202,248839,191419
1630679497803,33166,248868,191448
1630679497813,33146,248934,191454
1630679497823,33113,248964,191533
1630679497833,33059,248958,191511
1630679497843,32973,248862,191481
1630679497853,32902,248800,191466
1630679497863,32841,248754,191467
1630679497873,32795,248629,191458
1630679497883,32746,248569,191449
1630679497893,32708,248512,191418
1630679497903,32644,248434,191391
1630679497913,32609,248335,191373
1630679497923,32580,248277,191387
1630679497933,32560,248209,191373
1630679497943,32551,248093,191277
1630679497953,32554,247943,191199
1630679497963,32575,247862,191177
1630679497973,32585,247848,191196
1630679497983,32616,247934,191308
1630679497993,32674,248011,191450
1630679498003,32700,248031,191445
1630679498013,32704,248010,191316
1630679498023,32676,247831,191007
1630679498033,32680,247743,190771
1630679498043,32719,247824,190857
1630679498053,32763,247895,190866
1630679498063,32765,247937,190791
1630679498073,32740,248003,190772
1630679498083,32732,248037,190776
1630679498093,32729,248077,190748
1630679498103,32728,248137,190738
1630679498113,32728,248179,190756
1630679498123,32716,248220,190761
1630679498133,32700,248265,190766
1630679498143,32694,248338,190784
1630679498153,32688,248390,190804
1630679498163,32683,248427,190821
1630679498173,32661,248498,190841
1630679498183,32635,248522,190870
1630679498193,32583,248525,190862
1630679498203,32509,248451,190831
1630679498213,32433,248353,190791
1630679498223,32367,248268,190768
1630679498233,32298,248228,190718
1630679498243,32231,248142,190668
1630679498253,32197,248109,190667
1630679498263,32167,248113,190681
1630679498273,32149,248047,190709
1630679498283,32150,248023,190776
1630679498293,32149,248074,190821
1630679498303,32154,248038,190863
1630679498313,32166,248027,190910
1630679498323,32189,247993,190971
1630679498333,32229,247916,190932
1630679498343,32261,247827,190886
1630679498353,32303,247789,190841
1630679498363,32336,247868,190884
1630679498373,32397,248018,191075
1630679498383,32520,248219,191309
1630679498393,32596,248298,191423
1630679498403,32654,248337,191420
1630679498413,32665,248192,191160
1630679498423,32631,248000,190934
1630679498433,32635,248003,190837
1630679498443,32687,248113,190888
1630679498453,32733,248251,190913
1630679498463,32749,248303,190919
1630679498473,32774,248369,190912
1630679498483,32782,248440,190927
1630679498493,32818,248566,190961
1630679498503,32835,248620,191005
1630679498513,32863,248748,191040
1630679498523,32843,248830,191038
1630679498533,32822,248881,191000
1630679498543,32767,248884,190948
1630679498553,32678,248831,190886
1630679498563,32576,248768,190785
1630679498573,32472,248692,190700
1630679498583,32383,248614,190664
1630679498593,32309,248604,190627
1630679498603,32261,248557,190607
1630679498613,32207,248511,190600
1630679498623,32148,248429,190571
1630679498633,32100,248451,190491
1630679498643,32052,248363,190449
1630679498653,32017,248305,190440
1630679498663,31991,248233,190375
1630679498673,31982,248184,190375
1630679498683,31976,248165,190383
1630679498693,31971,248211,190401
1630679498703,31967,248232,190431
1630679498713,31960,248152,190399
1630679498723,31959,248133,190387
1630679498733,31988,248073,190403
1630679498743,32044,247981,190481
1630679498753,32087,247976,190494
1630679498763,32102,248036,190505
1630679498773,32124,248067,190551
1630679498783,32160,248134,190635
1630679498793,32170,248113,190603
1630679498803,32179,248098,190511
1630679498813,32216,248091,190411
1630679498823,32244,248010,190286
1630679498833,32285,248069,190196
1630679498843,32301,248063,190175
1630679498853,32265,248050,190024
1630679498863,32223,247978,189913
1630679498873,32212,247960,189810
1630679498883,32162,247913,189723
1630679498893,32103,247840,189531
1630679498903,32006,247785,189311
1630679498913,31893,247692,189141
1630679498923,31797,247635,189016
1630679498933,31702,247564,188918
1630679498943,31614,247499,188800
1630679498953,31531,247427,188696
1630679498963,31449,247344,188582
1630679498973,31356,247217,188463
1630679498983,31292,247233,188388
1630679498993,31228,247153,188300
1630679499003,31170,247150,188272
1630679499013,31157,247180,188273
1630679499023,31146,247220,188298
1630679499033,31165,247207,188337
1630679499043,31167,247247,188316
1630679499053,31160,247231,188313
1630679499063,31164,247264,188304
1630679499073,31162,247272,188266
1630679499083,31155,247275,188281
1630679499093,31143,247344,188270
1630679499103,31151,247332,188259
1630679499113,31171,247333,188281
1630679499123,31203,247281,188289
1630679499133,31271,247212,188335
1630679499143,31391,247296,188549
1630679499153,31526,247400,188739
1630679499163,31531,247449,188734
1630679499173,31525,247512,188693
1630679499183,31600,247631,188824
1630679499193,31675,247753,188904
1630679499203,31720,247748,188856
1630679499213,31763,247663,188834
1630679499223,31834,247699,188840
1630679499233,31890,247768,188878
1630679499243,31952,247877,188917
1630679499253,31988,248017,188935
1630679499263,31988,248026,188925
1630679499273,31935,248064,188790
1630679499283,31863,248002,188681
1630679499293,31799,248012,188588
1630679499303,31736,248015,188487
1630679499313,31671,248051,188328
1630679499323,31604,248064,188273
1630679499333,31556,248092,188147
1630679499343,31498,248073,188102
1630679499353,31476,248071,188042
1630679499363,31442,248091,187987
1630679499373,31445,248063,187980
1630679499383,31443,248122,187998
1630679499393,31454,248147,188036
1630679499403,31473,248205,188065
1630679499413,31501,248286,188119
1630679499423,31525,248368,188172
1630679499433,31548,248413,188250
1630679499443,31573,248509,188277
1630679499453,31591,248544,188324
1630679499463,31616,248574,188357
1630679499473,31627,248608,188421
1630679499483,31650,248706,188480
1630679499493,31682,248781,188554
1630679499503,31723,248851,188655
1630679499513,31761,248901,188789
1630679499523,31817,248999,188889
1630679499533,31904,248971,189053
1630679499543,32082,249085,189468
1630679499553,32262,249290,189846
1630679499563,32333,249412,189971
1630679499573,32355,249459,190033
1630679499583,32389,249516,190115
1630679499593,32443,249541,190268
1630679499603,32511,249565,190376
1630679499613,32594,249621,190451
1630679499623,32689,249652,190665
1630679499633,32798,249732,190820
1630679499643,32864,249768,190883
1630679499653,32868,249766,190879
1630679499663,32889,249735,190865
1630679499673,32890,249762,190909
1630679499683,32920,249797,190926
1630679499693,32909,249836,190890
1630679499703,32905,249799,190840
1630679499713,32875,249778,190755
1630679499723,32825,249758,190659
1630679499733,32778,249760,190553
1630679499743,32729,249757,190443
1630679499753,32677,249744,190326
1630679499763,32625,249754,190234
1630679499773,32577,249712,190119
1630679499783,32542,249754,190037
1630679499793,32500,249699,189927
1630679499803,32473,249708,189845
1630679499813,32451,249737,189823
1630679499823,32449,249791,189825
1630679499833,32431,249910,189803
1630679499843,32448,249891,189821
1630679499853,32460,249966,189825
1630679499863,32470,249921,189804
1630679499873,32467,249947,189791
1630679499883,32477,249946,189779
1630679499893,32482,249939,189795
1630679499903,32505,250021,189842
1630679499913,32542,250056,189895
1630679499923,32594,250127,190000
1630679499933,32689,250185,190217
1630679499943,32854,250288,190519
1630679499953,33060,250453,190933
1630679499963,33248,250643,191220
1630679499973,33264,250682,191231
1630679499983,33249,250714,191221
1630679499993,33274,250793,191336
1630679500003,33321,250820,191370
1630679500013,33363,250780,191386
1630679500023,33419,250784,191418
1630679500033,33499,250863,191449
1630679500043,33592,250981,191498
1630679500053,33650,251094,191551
1630679500063,33718,251229,191662
1630679500073,33780,251340,191718
1630679500083,33837,251439,191745
1630679500093,33874,251609,191802
1630679500103,33918,251689,191804
1630679500113,33965,251820,191839
1630679500123,34006,251928,191873
1630679500133,34013,252071,191864
1630679500143,33992,252110,191802
1630679500153,33966,252182,191713
1630679500163,33919,252169,191580
1630679500173,33850,252186,191443
1630679500183,33796,252134,191320
1630679500193,33739,252183,191161
1630679500203,33686,252126,191054
1630679500213,33649,252119,190965
1630679500223,33615,252122,190877
1630679500233,33578,252133,190838
1630679500243,33554,252150,190761
1630679500253,33523,252171,190697
1630679500263,33518,252129,190699
1630679500273,33531,252111,190657
1630679500283,33530,252102,190646
1630679500293,33545,252146,190617
1630679500303,33534,252183,190636
1630679500313,33513,252137,190634
1630679500323,33471,252132,190646
1630679500333,33451,252043,190623
1630679500343,33436,251927,190636
1630679500353,33466,251852,190678
1630679500363,33555,251812,190863
1630679500373,33674,251873,191091
1630679500383,33715,251924,191165
1630679500393,33718,251898,191194
1630679500403,33733,251911,191231
1630679500413,33742,251854,191197
1630679500423,33757,251778,191172
1630679500433,33789,251734,191143
1630679500443,33865,251815,191253
1630679500453,33933,251867,191294
1630679500463,33950,251909,191205
1630679500473,33927,251865,191098
1630679500483,33920,251831,191019
1630679500493,33900,251771,190923
1630679500503,33863,251748,190823
1630679500513,33823,251633,190690
1630679500523,33774,251601,190560
1630679500533,33728,251525,190429
1630679500543,33673,251521,190322
1630679500553,33618,251509,190183
1630679500563,33559,251484,190031
1630679500573,33461,251454,189875
1630679500583,33386,251424,189685
1630679500593,33324,251409,189618
1630679500603,33267,251395,189475
1630679500613,33235,251346,189405
1630679500623,33173,251388,189311
1630679500633,33147,251388,189271
1630679500643,33141,251450,189262
1630679500653,33134,251474,189259
1630679500663,33109,251472,189237
1630679500673,33085,251494,189189
1630679500683,33060,251415,189135
1630679500693,33032,251421,189120
1630679500703,32991,251412,189062
1630679500713,32956,251363,189062
1630679500723,32941,251424,189107
1630679500733,32954,251428,189168
1630679500743,32976,251454,189295
1630679500753,33025,251450,189376
1630679500763,33103,251430,189579
1630679500773,33257,251367,189840
1630679500783,33413,251449,190066
1630679500793,33483,251531,190121
1630679500803,33517,251576,190179
1630679500813,33555,251649,190252
1630679500823,33579,251658,190248
1630679500833,33600,251638,190233
1630679500843,33641,251545,190237
1630679500853,33681,251550,190173
1630679500863,33753,251639,190218
1630679500873,33838,251758,190313
1630679500883,33909,251874,190407
1630679500893,33958,251901,190396
1630679500903,33976,251954,190392
1630679500913,33988,251991,190358
1630679500923,34010,252067,190381
1630679500933,34034,252112,190396
1630679500943,34030,252190,190403
1630679500953,34028,252214,190348
1630679500963,33984,252249,190283
1630679500973,33939,252271,190173
1630679500983,33887,252244,190062
1630679500993,33832,252221,189928
1630679501003,33769,252299,189857
1630679501013,33706,252318,189771
1630679501023,33650,252310,189692
1630679501033,33601,252375,189694
1630679501043,33558,252344,189671
1630679501053,33520,252332,189677
1630679501063,33496,252349,189690
1630679501073,33469,252332,189701
1630679501083,33450,252343,189743
1630679501093,33458,252305,189761
1630679501103,33460,252350,189798
1630679501113,33453,252356,189803
1630679501123,33440,252319,189809
1630679501133,33409,252288,189810
1630679501143,33369,252271,189755
1630679501153,33346,252238,189762
1630679501163,33351,252149,189753
1630679501173,33396,252041,189816
1630679501183,33471,251915,189932
1630679501193,33585,251912,190131
1630679501203,33661,252012,190200
1630679501213,33669,252032,190261
1630679501223,33675,251979,190286
1630679501233,33693,251985,190286
1630679501243,33680,251939,190236
1630679501253,33704,251922,190186
1630679501263,33761,251949,190243
1630679501273,33880,252025,190369
1630679501283,33946,252153,190475
1630679501293,33977,252232,190477
1630679501303,33972,252239,190509
1630679501313,33988,252285,190553
1630679501323,34002,252301,190550
1630679501333,34001,252355,190507
1630679501343,33980,252357,190421
1630679501353,33948,252377,190356
1630679501363,33894,252396,190250
1630679501373,33804,252386,190122
1630679501383,33710,252316,189977
1630679501393,33613,252252,189875
1630679501403,33533,252215,189783
1630679501413,33442,252175,189693
1630679501423,33355,252106,189565
1630679501433,33283,252009,189462
1630679501443,33189,251993,189381
1630679501453,33132,251976,189272
1630679501463,33071,251940,189223
1630679501473,33011,251914,189203
1630679501483,32983,251953,189211
1630679501493,32968,251894,189208
1630679501503,32967,251940,189201
1630679501513,32955,251956,189229
1630679501523,32938,251942,189254
1630679501533,32937,251956,189284
1630679501543,32943,252031,189359
1630679501553,32959,251985,189437
1630679501563,32996,252036,189572
1630679501573,33077,251992,189788
1630679501583,33216,251936,190063
1630679501593,33422,252054,190407
1630679501603,33511,252130,190539
1630679501613,33519,252308,190562
1630679501623,33555,252357,190701
1630679501633,33606,252447,190785
1630679501643,33659,252450,190825
1630679501653,33727,252447,190975
1630679501663,33803,252537,191111
1630679501673,33899,252665,191263
1630679501683,33995,252836,191483
1630679501693,34086,252987,191604
1630679501703,34162,253152,191750
1630679501713,34201,253260,191838
1630679501723,34205,253280,191874
1630679501733,34209,253328,191948
1630679501743,34223,253405,192023
1630679501753,34203,253496,192092
1630679501763,34174,253523,192105
1630679501773,34130,253532,192063
1630679501783,34072,253542,192009
1630679501793,33977,253536,191917
1630679501803,33916,253510,191827
1630679501813,33824,253454,191713
1630679501823,33743,253472,191620
1630679501833,33679,253445,191547
1630679501843,33617,253426,191481
1630679501853,33568,253390,191419
1630679501863,33515,253404,191328
1630679501873,33464,253410,191247
1630679501883,33419,253375,191191
1630679501893,33394,253331,191165
1630679501903,33370,253343,191155
1630679501913,33383,253328,191185
1630679501923,33385,253297,191154
1630679501933,33371,253301,191173
1630679501943,33327,253252,191129
1630679501953,33287,253241,191053
1630679501963,33229,253168,190984
1630679501973,33210,253047,190960
1630679501983,33211,252956,190959
1630679501993,33248,252776,190974
1630679502003,33302,252703,191060
1630679502013,33363,252697,191138
1630679502023,33378,252766,191143
1630679502033,33355,252668,191112
1630679502043,33341,252654,191056
1630679502053,33320,252639,191020
1630679502063,33291,252558,190970
1630679502073,33309,252554,191036
1630679502083,33373,252568,191166
1630679502093,33405,252633,191268
1630679502103,33379,252625,191286
1630679502113,33353,252622,191274
1630679502123,33330,252636,191253
1630679502133,33294,252601,191216
1630679502143,33267,252558,191201
1630679502153,33237,252552,191180
1630679502163,33185,252518,191125
1630679502173,33116,252527,191032
1630679502183,33044,252529,190938
1630679502193,32974,252482,190845
1630679502203,32893,252470,190723
1630679502213,32814,252380,190596
1630679502223,32752,252381,190484
1630679502233,32696,252349,190346
1630679502243,32648,252339,190257
1630679502253,32598,252335,190183
1630679502263,32546,252352,190148
1630679502273,32523,252394,190138
1630679502283,32510,252381,190089
1630679502293,32495,252391,190101
1630679502303,32485,252428,190096
1630679502313,32477,252371,190095
1630679502323,32457,252381,190097
1630679502333,32434,252375,190058
1630679502343,32402,252389,189997
1630679502353,32380,252366,190010
1630679502363,32382,252333,190003
1630679502373,32393,252302,190042
1630679502383,32414,252204,190082
1630679502393,32480,252136,190224
1630679502403,32582,252039,190435
1630679502413,32662,252043,190526
1630679502423,32641,252099,190554
1630679502433,32591,252070,190535
1630679502443,32575,251968,190574
1630679502453,32533,251940,190487
1630679502463,32480,251762,190326
1630679502473,32457,251633,190235
1630679502483,32492,251582,190275
1630679502493,32539,251634,190307
1630679502503,32559,251658,190318
1630679502513,32566,251699,190291
1630679502523,32562,251680,190277
1630679502533,32543,251671,190201
1630679502543,32529,251746,190163
1630679502553,32534,251763,190126
1630679502563,32544,251881,190128
1630679502573,32563,251933,190135
1630679502583,32558,251982,190076
1630679502593,32516,252044,189970
1630679502603,32467,252032,189893
1630679502613,32410,252024,189727
1630679502623,32352,252021,189607
1630679502633,32313,252013,189534
1630679502643,32263,252020,189447
1630679502653,32220,251991,189414
1630679502663,32193,252046,189378
1630679502673,32188,252045,189419
1630679502683,32193,252146,189504
1630679502693,32210,252236,189598
1630679502703,32240,252297,189707
1630679502713,32259,252307,189760
1630679502723,32279,252339,189786
1630679502733,32294,252378,189798
1630679502743,32286,252405,189843
1630679502753,32252,252393,189858
1630679502763,32193,252265,189849
1630679502773,32113,252176,189776
1630679502783,32044,251926,189684
1630679502793,31978,251737,189624
1630679502803,31992,251512,189707
1630679502813,32057,251567,189855
1630679502823,32120,251567,190042
1630679502833,32139,251538,190123
1630679502843,32129,251483,190085
1630679502853,32108,251377,189974
