timestamp,green,ir,red
1630679468142,57566,57815,57849
1630679468152,64767,90589,90628
1630679468162,64703,123367,123403
1630679468172,64746,156139,156179
1630679468182,64705,188922,188944
1630679468192,64590,221711,221580
1630679468202,64412,254280,254324
1630679468212,64266,286913,286919
1630679468222,64109,317885,299878
1630679468232,63989,317166,299382
1630679468242,63901,316585,299000
1630679468252,63812,315926,298631
1630679468262,63761,315519,298380
1630679468272,63732,315257,298238
1630679468282,63704,314955,298031
1630679468292,63701,314801,297969
1630679468302,63676,314608,297932
1630679468312,63645,314356,297785
1630679468322,63627,314140,297752
1630679468332,63645,314101,297840
1630679468342,63644,314180,297935
1630679468352,63706,314580,298176
1630679468362,63779,315154,298417
1630679468372,63920,315861,298790
1630679468382,64009,316129,299051
1630679468392,64019,315967,299125
1630679468402,64018,315508,299077
1630679468412,64047,315370,299306
1630679468422,64149,315430,299631
1630679468432,64228,315732,299744
1630679468442,64446,316654,300371
1630679468452,64604,317038,300618
1630679468462,64734,316785,301102
1630679468472,64901,316102,301423
1630679468482,64710,313713,300244
1630679468492,64360,310724,298427
1630679468502,63913,307836,296322
1630679468512,63653,306714,295176
1630679468522,63507,306016,294578
1630679468532,63276,305202,293670
1630679468542,63116,304471,292931
1630679468552,62844,303407,291724
1630679468562,62553,302166,290374
1630679468572,62211,300815,288972
1630679468582,61888,299676,287727
1630679468592,61666,298851,286775
1630679468602,61469,298069,286013
1630679468612,61300,297440,285464
1630679468622,61149,296790,284923
1630679468632,60968,296107,284228
1630679468642,60728,295166,283372
1630679468652,60467,294087,282286
1630679468662,60224,293005,281264
1630679468672,60027,292117,280409
1630679468682,59827,291361,279683
1630679468692,59690,290798,279146
1630679468702,59571,290318,278700
1630679468712,59436,289781,278278
1630679468722,59348,289371,277941
1630679468732,59275,288970,277762
1630679468742,59233,288860,277670
1630679468752,59245,288985,277811
1630679468762,59300,289422,278171
1630679468772,59510,290429,279064
1630679468782,59924,292475,280761
1630679468792,60355,294475,282388
1630679468802,60699,295318,283630
1630679468812,60859,294935,284315
1630679468822,61043,294645,285016
1630679468832,61100,294316,285330
1630679468842,61180,294328,285786
1630679468852,61488,295848,287111
1630679468862,61812,297638,288459
1630679468872,62047,298612,289560
1630679468882,62425,299414,291142
1630679468892,62501,299195,291483
1630679468902,62456,298827,291195
1630679468912,62304,298240,290554
1630679468922,62086,297279,289644
1630679468932,61902,296542,288814
1630679468942,61734,295920,288147
1630679468952,61545,295259,287279
1630679468962,61325,294504,286396
1630679468972,61011,293372,285151
1630679468982,60690,292258,283914
1630679468992,60457,291524,282966
1630679469002,60269,290811,282334
1630679469012,59994,289899,280997
1630679469022,59666,288830,279714
1630679469032,59311,288062,278745
1630679469042,59119,287217,277496
1630679469052,58827,286216,276489
1630679469062,58551,285204,275363
1630679469072,58330,284062,273975
1630679469082,58101,282971,272984
1630679469092,57763,281258,271388
1630679469102,57391,279157,269462
1630679469112,57138,277396,268405
1630679469122,57547,278279,269911
1630679469132,57229,276555,268101
1630679469142,56840,274709,266370
1630679469152,56555,273371,265179
1630679469162,56261,272274,263923
1630679469172,55931,271032,262618
1630679469182,55731,270432,261789
1630679469192,55536,269810,261039
1630679469202,55405,269138,260557
1630679469212,55171,267557,259441
1630679469222,54570,264505,256818
1630679469232,54221,263211,255782
1630679469242,54230,263353,255831
1630679469252,54151,263067,255402
1630679469262,54066,262582,254970
1630679469272,53748,260271,253169
1630679469282,53233,256819,251057
1630679469292,53118,254740,250748
1630679469302,53149,253434,250956
1630679469312,53068,252091,250421
1630679469322,52767,250676,249438
1630679469332,52443,249465,248284
1630679469342,52219,248678,247504
1630679469352,51928,247654,246406
1630679469362,51567,246219,244942
1630679469372,50970,243984,242635
1630679469382,50339,241751,240142
1630679469392,49869,240187,238419
1630679469402,49512,239099,237115
1630679469412,49202,238162,235994
1630679469422,48954,237562,235050
1630679469432,48804,237423,234482
1630679469442,48673,237289,233925
1630679469452,48557,237309,233608
1630679469462,48399,237132,232996
1630679469472,48231,236641,232309
1630679469482,48000,236078,231208
1630679469492,47203,233024,227407
1630679469502,45772,227310,220870
1630679469512,44629,222561,216091
1630679469522,44159,220620,214176
1630679469532,43896,219427,212934
1630679469542,43653,218318,211929
1630679469552,43568,217791,211560
1630679469562,43541,217575,211392
1630679469572,43563,217694,211539
1630679469582,43610,217984,211878
1630679469592,43917,219318,213281
1630679469602,44493,221499,216083
1630679469612,45924,226089,222898
1630679469622,47510,229988,229475
1630679469632,47122,227031,227725
1630679469642,46079,222449,223801
1630679469652,45011,218075,219685
1630679469662,44412,215793,217809
1630679469672,44714,216985,219172
1630679469682,44734,217101,219155
1630679469692,44966,217597,220066
1630679469702,44797,216856,219575
1630679469712,44569,215992,218782
1630679469722,44553,215928,218903
1630679469732,44630,216253,219348
1630679469742,44795,216860,220097
1630679469752,44941,217488,220792
1630679469762,45066,218001,221275
1630679469772,45107,218313,221396
1630679469782,45326,219421,222336
1630679469792,45711,221094,223926
1630679469802,45952,222302,224638
1630679469812,45895,222451,223855
1630679469822,45371,220865,221210
1630679469832,44523,217896,217151
1630679469842,43287,213593,211604
1630679469852,42050,209122,206423
1630679469862,41019,205262,201890
1630679469872,40143,201875,198162
1630679469882,39838,199930,196239
1630679469892,39494,198432,194797
1630679469902,39191,197115,193530
1630679469912,39008,196365,192851
1630679469922,38791,195430,191850
1630679469932,38386,193773,190033
1630679469942,38158,192941,189242
1630679469952,37963,192185,188321
1630679469962,37730,191453,187522
1630679469972,37636,191193,187107
1630679469982,37488,190806,186487
1630679469992,37452,190815,186413
1630679470002,37527,190951,186897
1630679470012,38014,192394,190043
1630679470022,37944,191141,189165
1630679470032,35368,181030,178186
1630679470042,34422,177688,175281
1630679470052,34770,179153,177151
1630679470062,35331,181385,179982
1630679470072,36144,184575,183890
1630679470082,36925,187445,187581
1630679470092,36731,186314,186326
1630679470102,36162,184110,184407
1630679470112,35989,183358,183465
1630679470122,35951,183357,183500
1630679470132,35909,183349,183474
1630679470142,35836,183040,183022
1630679470152,35738,182725,182621
1630679470162,35661,182410,182273
1630679470172,35555,181980,181770
1630679470182,35339,181091,180783
1630679470192,35077,180025,179574
1630679470202,34804,178924,178369
1630679470212,34664,178390,177912
1630679470222,34634,178274,177787
1630679470232,34613,178162,177731
1630679470242,34586,178005,177681
1630679470252,34596,178027,177637
1630679470262,34591,178158,177854
1630679470272,34660,178493,178207
1630679470282,34739,178812,178604
1630679470292,34827,179151,178936
1630679470302,34817,179167,178910
1630679470312,34990,180031,179976
1630679470322,35156,180583,180366
1630679470332,34561,177970,177047
1630679470342,33345,173087,171413
1630679470352,32370,169184,167146
1630679470362,31965,167782,165633
1630679470372,32126,168503,166502
1630679470382,32633,170651,169127
1630679470392,34001,176360,176936
1630679470402,37896,191266,196721
1630679470412,41018,202528,209579
1630679470422,40276,198907,205158
1630679470432,38688,192727,198611
1630679470442,38178,190972,197137
1630679470452,38195,190876,197106
1630679470462,38146,190761,197031
1630679470472,38438,192065,198480
1630679470482,38500,192214,198291
1630679470492,38031,190353,196183
1630679470502,37557,188213,193777
1630679470512,36546,183949,189127
1630679470522,35856,181078,186064
1630679470532,35256,178551,183378
1630679470542,34682,176273,180994
1630679470552,34434,175308,179976
1630679470562,34413,175310,180088
1630679470572,34468,175597,180542
1630679470582,34671,176521,181649
1630679470592,34933,177764,183274
1630679470602,35385,179507,185332
1630679470612,35901,181913,188489
1630679470622,36521,184441,191370
1630679470632,37291,187696,195438
1630679470642,37908,190087,198121
1630679470652,38006,190202,197919
1630679470662,36915,185847,192063
1630679470672,34778,177363,180107
1630679470682,31913,166460,166575
1630679470692,29881,158592,157183
1630679470702,29187,156160,154884
1630679470712,29280,156660,155728
1630679470722,29152,156150,155141
1630679470732,29043,155841,154844
1630679470742,28989,155619,154671
1630679470752,28941,155624,154580
1630679470762,28993,155953,154978
1630679470772,29100,156436,155502
1630679470782,29198,156971,155863
1630679470792,29254,157331,156162
1630679470802,29432,158004,157204
1630679470812,29703,158916,158962
1630679470822,29083,155704,155432
1630679470832,28028,151191,151041
1630679470842,27188,147126,146304
1630679470852,26438,144005,143327
1630679470862,26408,143876,143760
1630679470872,27797,149748,150690
1630679470882,28181,151225,152558
1630679470892,28576,152507,153878
1630679470902,28084,150441,151580
1630679470912,27784,149140,150211
1630679470922,27799,149264,150443
1630679470932,28035,150285,151561
1630679470942,28280,151382,152910
1630679470952,28633,152970,154844
1630679470962,29089,154933,157194
1630679470972,29419,156358,158811
1630679470982,29544,156888,159462
1630679470992,29576,157099,159760
1630679471002,29559,157046,159770
1630679471012,29596,157302,160143
1630679471022,29800,158232,161343
1630679471032,30022,159141,162437
1630679471042,30138,159682,163154
1630679471052,30360,160650,164424
1630679471062,30701,162125,166212
1630679471072,31119,163922,168512
1630679471082,31587,165811,170814
1630679471092,31773,166325,171322
1630679471102,31210,163575,167599
1630679471112,29841,157795,160459
1630679471122,28545,152316,153502
1630679471132,27264,146678,146986
1630679471142,26877,144759,145016
1630679471152,26629,143266,143438
1630679471162,26498,142368,142607
1630679471172,26569,142465,142954
1630679471182,26965,144010,144942
1630679471192,27516,146144,147611
1630679471202,28662,150642,153573
1630679471212,32230,165185,171715
1630679471222,35347,177405,184876
1630679471232,34569,173039,179595
1630679471242,33601,168045,174113
1630679471252,32483,163214,168570
1630679471262,32138,161993,167306
1630679471272,32207,162436,167732
1630679471282,32886,165559,171163
1630679471292,33367,167767,173891
1630679471302,33677,168797,174826
1630679471312,32556,163239,168314
1630679471322,31102,156450,160678
1630679471332,30335,152958,156726
1630679471342,29682,150091,153078
1630679471352,29239,148232,151310
1630679471362,29398,149074,151803
1630679471372,29789,151056,153841
1630679471382,29936,151742,154644
1630679471392,30115,152514,155555
1630679471402,30471,154225,157774
1630679471412,31107,156959,161157
1630679471422,32395,162705,167757
1630679471432,33589,167810,173963
1630679471442,34370,170732,177544
1630679471452,35488,174707,181820
1630679471462,34275,169350,174828
1630679471472,32576,162214,166867
1630679471482,30783,155048,158246
1630679471492,29105,147743,149575
1630679471502,27613,140930,142352
1630679471512,26158,135098,136294
1630679471522,25267,131915,132821
1630679471532,24507,129060,129593
1630679471542,24131,126858,126987
1630679471552,23671,125295,125051
1630679471562,23268,123728,123093
1630679471572,22883,122076,121173
1630679471582,22545,120356,119303
1630679471592,22296,118746,117808
1630679471602,22589,119070,119041
1630679471612,24024,123225,125173
1630679471622,25937,129110,132731
1630679471632,27565,133697,138340
1630679471642,28067,133641,138304
1630679471652,28668,134553,139694
1630679471662,29655,137857,143227
1630679471672,30771,141796,147098
1630679471682,32106,147322,152239
1630679471692,33501,153693,158174
1630679471702,34250,156511,160418
1630679471712,35252,161087,164997
1630679471722,35778,163606,167271
1630679471732,36128,165607,169034
1630679471742,36322,166821,170083
1630679471752,36396,167361,170645
1630679471762,36494,167983,171374
1630679471772,36639,168972,172577
1630679471782,36893,170591,174238
1630679471792,37187,172439,176338
1630679471802,37376,173462,177709
1630679471812,37537,174417,178859
1630679471822,37670,175157,179713
1630679471832,37770,175756,180333
1630679471842,37873,176251,180802
1630679471852,37991,176764,181222
1630679471862,38204,177823,181835
1630679471872,38364,178399,181843
1630679471882,38259,177587,180792
1630679471892,37877,175257,178325
1630679471902,36986,170314,173192
1630679471912,35793,164395,167261
1630679471922,33976,155989,159349
1630679471932,31889,147456,150515
1630679471942,28895,133320,137518
1630679471952,25377,118440,123247
1630679471962,21632,103586,114688
1630679471972,19207,93671,98024
1630679471982,19626,93101,98899
1630679471992,24047,113351,112851
1630679472002,23937,112254,106026
1630679472012,17831,81920,81920
1630679472022,12237,50711,49152
1630679472032,8541,32768,24828
1630679472042,6684,28509,20848
1630679472052,4894,30715,20606
1630679472062,4371,21810,15382
1630679472072,2364,9300,5877
1630679472082,1099,12722,4723
1630679472092,892,8562,2896
1630679472102,775,2602,1716
1630679472112,749,1300,1558
1630679472122,749,1138,1558
1630679472132,744,1161,1559
1630679472142,747,1075,1554
1630679472152,730,892,1524
1630679472162,736,839,1559
1630679472172,867,1555,2179
1630679472182,862,1075,2092
1630679472192,781,931,1653
1630679472202,795,1066,1729
1630679472212,740,851,1572
1630679472222,736,847,1541
1630679472232,745,862,1578
1630679472242,1074,15464,3108
1630679472252,1677,57396,4451
1630679472262,1171,32768,2831
1630679472272,773,1156,1631
1630679472282,736,843,1536
1630679472292,742,850,1548
1630679472302,749,1130,1634
1630679472312,783,3157,1683
1630679472322,776,3068,1613
1630679472332,753,1475,1565
1630679472342,752,1291,1592
1630679472352,742,1262,1660
1630679472362,745,1174,1627
1630679472372,751,1207,1577
1630679472382,734,1326,1549
1630679472392,734,996,1543
1630679472402,737,916,1532
1630679472412,746,993,1558
1630679472422,748,1224,1567
1630679472432,768,1151,1692
1630679472442,752,1064,1645
1630679472452,774,1114,1836
1630679472462,845,1520,2190
1630679472472,922,1974,2598
1630679472482,818,1094,1889
1630679472492,743,912,1534
1630679472502,745,1059,1567
1630679472512,739,1110,1627
1630679472522,742,1106,1625
1630679472532,743,1122,1591
1630679472542,749,980,1546
1630679472552,743,962,1550
1630679472562,752,1097,1559
1630679472572,759,1358,1568
1630679472582,751,1049,1583
1630679472592,750,899,1590
1630679472602,1256,39467,6622
1630679472612,5465,57769,16444
1630679472622,2136,90309,4823
1630679472632,1232,65536,2868
1630679472642,1269,38789,3052
1630679472652,866,16384,1924
1630679472662,795,2384,1712
1630679472672,789,1709,1712
1630679472682,789,2628,1685
1630679472692,804,4635,1742
1630679472702,800,4748,1740
1630679472712,804,3713,1734
1630679472722,810,3424,1723
1630679472732,786,3559,1664
1630679472742,754,2124,1610
1630679472752,756,1714,1680
1630679472762,754,1643,1645
1630679472772,749,1906,1629
1630679472782,753,1815,1585
1630679472792,754,1711,1571
1630679472802,753,1624,1565
1630679472812,751,1712,1566
1630679472822,744,1629,1572
1630679472832,746,1588,1592
1630679472842,733,1407,1559
1630679472852,744,1237,1554
1630679472862,735,1137,1558
1630679472872,746,1015,1556
1630679472882,732,941,1565
1630679472892,744,966,1564
1630679472902,746,1003,1566
1630679472912,741,1043,1557
1630679472922,745,1026,1563
1630679472932,751,1005,1603
1630679472942,783,1167,1812
1630679472952,880,1821,2302
1630679472962,855,1852,1997
1630679472972,899,2211,2138
1630679472982,3192,6622,9351
1630679472992,722,819,1507
1630679473002,722,819,1492
1630679473012,724,808,1509
1630679473022,714,832,1516
1630679473032,781,1011,2376
1630679473042,1230,2920,4380
1630679473052,1135,2626,3635
1630679473062,1033,2211,3177
1630679473072,922,1660,2541
1630679473082,836,1266,2015
1630679473092,792,1095,1850
1630679473102,774,1022,1726
1630679473112,756,1059,1615
1630679473122,747,1082,1598
1630679473132,753,1027,1619
1630679473142,754,998,1641
1630679473152,758,1035,1668
1630679473162,775,1088,1740
1630679473172,785,1193,1805
1630679473182,792,1281,1822
1630679473192,788,1282,1792
1630679473202,785,1190,1775
1630679473212,778,1083,1763
1630679473222,766,982,1713
1630679473232,757,912,1668
1630679473242,752,892,1637
1630679473252,754,902,1650
1630679473262,755,916,1696
1630679473272,770,961,1775
1630679473282,789,1026,1879
1630679473292,801,1065,1968
1630679473302,802,1022,1948
1630679473312,779,926,1770
1630679473322,748,863,1658
1630679473332,740,852,1640
1630679473342,761,874,1763
1630679473352,870,1213,2592
1630679473362,2032,6245,10573
1630679473372,57583,57797,57807
1630679473382,32768,32768,36441
1630679473392,3312,9323,16384
1630679473402,3998,9421,18390
1630679473412,4004,11461,17878
1630679473422,3595,13310,15003
1630679473432,2896,10229,12102
1630679473442,2665,9116,12488
1630679473452,3468,11054,17679
1630679473462,2741,6546,12625
1630679473472,1624,3311,6660
1630679473482,1113,1921,3766
1630679473492,1132,2239,3580
1630679473502,2036,5793,7302
1630679473512,5138,17480,17703
1630679473522,2986,10680,8197
1630679473532,2856,11062,8813
1630679473542,3133,11900,9147
1630679473552,1986,6288,7109
1630679473562,1609,4372,5935
1630679473572,1531,4246,3685
1630679473582,1764,10260,4452
1630679473592,1843,7210,6716
1630679473602,1459,5911,3074
1630679473612,884,2253,1895
1630679473622,4976,21864,25129
1630679473632,8334,31252,35349
1630679473642,8035,27553,30577
1630679473652,4359,15016,13654
1630679473662,7383,25280,26974
1630679473672,3070,11230,7582
1630679473682,2473,8763,8053
1630679473692,11293,38895,45073
1630679473702,41510,57720,74281
1630679473712,32788,90328,106721
1630679473722,22552,76616,94270
1630679473732,35018,112687,137195
1630679473742,20911,98304,114688
1630679473752,7771,65536,81920
1630679473762,20517,75667,89026
1630679473772,42588,106699,106884
1630679473782,61647,139630,139816
1630679473792,85820,172387,172566
1630679473802,93879,205156,205330
1630679473812,91344,237741,238125
1630679473822,83755,247879,270729
1630679473832,69131,212992,292723
1630679473842,70022,218533,275700
1630679473852,49152,180224,262144
1630679473862,16384,147456,229376
1630679473872,2724,114688,196608
1630679473882,2930,81920,163840
1630679473892,2715,49152,131072
1630679473902,2543,16384,98304
1630679473912,2618,8276,65536
1630679473922,2779,8156,32768
1630679473932,3197,8352,12660
1630679473942,3755,9535,14283
1630679473952,4268,10811,16372
1630679473962,4572,11730,18227
1630679473972,4730,12409,20211
1630679473982,5018,13410,23437
1630679473992,5865,15481,28772
1630679474002,7470,19247,36450
1630679474012,11059,27398,51224
1630679474022,11309,25734,46756
1630679474032,9081,19416,35807
1630679474042,8561,17913,32568
1630679474052,8942,18513,33400
1630679474062,10132,21172,38067
1630679474072,12682,27484,48950
1630679474082,18156,43195,73294
1630679474092,29422,73787,106744
1630679474102,42722,106721,139680
1630679474112,56699,139492,172442
1630679474122,70112,172249,205375
1630679474132,80362,205020,238077
1630679474142,85573,237773,270900
1630679474152,87197,270353,303701
1630679474162,86837,286315,336269
1630679474172,85393,293309,369022
1630679474182,85270,298480,401632
1630679474192,86279,302003,415408
1630679474202,87078,301339,413351
1630679474212,88315,298851,409515
1630679474222,87731,291120,400045
1630679474232,84026,278528,376832
1630679474242,76711,245760,344064
1630679474252,66686,212992,311296
1630679474262,55686,180224,278528
1630679474272,44664,147456,245760
1630679474282,37436,114688,212992
1630679474292,33300,83133,180224
1630679474302,29844,71607,147456
1630679474312,26813,61937,114688
1630679474322,23371,51046,81920
1630679474332,19187,37526,60200
1630679474342,14203,23579,49152
1630679474352,9504,12418,29449
1630679474362,5672,5656,17644
1630679474372,3170,3371,9924
1630679474382,1732,3279,4913
1630679474392,1373,4392,2790
1630679474402,1566,5467,2426
1630679474412,1551,5385,2297
1630679474422,1424,4946,2202
1630679474432,1355,4709,2164
1630679474442,1283,4416,2116
1630679474452,1197,4025,2081
1630679474462,1094,3596,2037
1630679474472,1007,3130,2000
1630679474482,924,2689,1974
1630679474492,875,2329,1952
1630679474502,850,2182,1955
1630679474512,855,2203,1960
1630679474522,870,2302,1983
1630679474532,894,2490,2021
1630679474542,951,2861,2074
1630679474552,1053,3423,2152
1630679474562,1158,3943,2229
1630679474572,1214,4289,2288
1630679474582,1385,5148,2462
1630679474592,1884,7135,3051
1630679474602,2720,10180,4554
1630679474612,4332,15529,8640
1630679474622,6727,22923,15982
1630679474632,8761,28617,22455
1630679474642,10143,32632,27494
1630679474652,11754,37184,33601
1630679474662,13139,41101,38978
1630679474672,14139,43691,42966
1630679474682,14863,45639,45410
1630679474692,14674,44988,44221
1630679474702,13567,41660,39263
1630679474712,10863,33778,28653
1630679474722,7319,23429,16468
1630679474732,4568,15386,8764
1630679474742,2712,9438,4578
1630679474752,1632,5779,2975
1630679474762,1247,4495,2597
1630679474772,1114,4112,2488
1630679474782,1060,3990,2433
1630679474792,984,3864,2394
1630679474802,955,3718,2356
1630679474812,925,3606,2362
1630679474822,941,3490,2393
1630679474832,928,3299,2498
1630679474842,947,3045,2741
1630679474852,1041,2800,3390
1630679474862,1323,2838,4914
1630679474872,1917,3585,7818
1630679474882,2681,4864,11138
1630679474892,3018,5314,12294
1630679474902,3371,6038,14057
1630679474912,4150,7770,17482
1630679474922,5411,10704,23090
1630679474932,7418,15335,31459
1630679474942,9984,21221,41528
1630679474952,12890,28101,52417
1630679474962,16051,35768,64096
1630679474972,19061,43325,75035
1630679474982,21692,49694,84120
1630679474992,23727,54997,91043
1630679475002,25065,58646,95722
1630679475012,26271,61817,100125
1630679475022,27876,66263,105939
1630679475032,29741,71396,112664
1630679475042,31828,76951,119755
1630679475052,33037,80087,123635
1630679475062,33734,81974,125860
1630679475072,33840,82439,126155
1630679475082,34636,84564,128770
1630679475092,36574,89953,136741
1630679475102,40065,98743,148350
1630679475112,44159,109137,161325
1630679475122,47684,119337,171215
1630679475132,50779,129492,178537
1630679475142,53840,138741,186451
1630679475152,55214,141781,189492
1630679475162,54077,136899,185904
1630679475172,50813,126164,177038
1630679475182,46786,114688,165168
1630679475192,42750,103450,152394
1630679475202,39117,93817,140697
1630679475212,36617,87298,132401
1630679475222,34371,81417,124713
1630679475232,32309,75956,117845
1630679475242,31456,73402,115323
1630679475252,31739,73657,116535
1630679475262,32614,75175,119474
1630679475272,34285,78620,125270
1630679475282,36677,83674,133225
1630679475292,38683,87854,139620
1630679475302,40419,91676,145329
1630679475312,42423,96172,152146
1630679475322,44190,100037,157860
1630679475332,45165,102127,160832
1630679475342,46047,104442,164115
1630679475352,49536,113572,177249
1630679475362,52357,121673,185909
1630679475372,43631,103284,152540
1630679475382,29957,81920,131072
1630679475392,25412,63517,98304
1630679475402,25124,62812,88986
1630679475412,23841,59697,82822
1630679475422,21760,53917,71523
1630679475432,22313,56106,71933
1630679475442,24350,60677,75628
1630679475452,27035,67028,83061
1630679475462,28662,70865,86472
1630679475472,29210,73064,87173
1630679475482,28527,72557,85867
1630679475492,27490,70688,83500
1630679475502,26401,68549,80535
1630679475512,25189,66046,77176
1630679475522,23828,63364,73980
1630679475532,22142,60375,70477
1630679475542,19903,56471,66333
1630679475552,17289,52569,61280
1630679475562,14621,48108,55656
1630679475572,12708,44835,51326
1630679475582,11969,43698,49668
1630679475592,12043,44106,49898
1630679475602,12385,45058,50822
1630679475612,12423,45356,51095
1630679475622,11788,44837,49894
1630679475632,10512,45131,48167
1630679475642,9609,52936,50600
1630679475652,9324,75414,62052
1630679475662,10572,106535,87361
1630679475672,14803,139464,115595
1630679475682,19025,158076,125014
1630679475692,21938,150811,127638
1630679475702,23951,146325,127021
1630679475712,24669,142551,124591
1630679475722,25100,139830,124313
1630679475732,25626,138622,125167
1630679475742,26598,139370,128249
1630679475752,27180,138902,129808
1630679475762,27477,138612,130902
1630679475772,27621,137542,131274
1630679475782,27342,134747,130145
1630679475792,26926,130809,127842
1630679475802,26092,125362,123897
1630679475812,25909,124173,123634
1630679475822,26510,126854,127229
1630679475832,27905,132760,134684
1630679475842,30772,143122,148164
1630679475852,34415,157479,167370
1630679475862,40532,183621,188631
1630679475872,47315,215846,221400
1630679475882,53163,244410,254166
1630679475892,57971,264482,286932
1630679475902,59144,273757,301028
1630679475912,59001,275496,298604
1630679475922,58544,272608,295530
1630679475932,57462,266612,289255
1630679475942,56077,261657,281001
1630679475952,55668,261902,279261
1630679475962,56843,269682,286706
1630679475972,58817,280938,297642
1630679475982,60128,287939,304815
1630679475992,59923,288495,305123
1630679476002,59074,284654,301127
1630679476012,57829,277891,293880
1630679476022,56014,269395,283564
1630679476032,53790,261228,271334
1630679476042,51381,254191,262144
1630679476052,50448,252605,255163
1630679476062,49844,251960,251903
1630679476072,49547,251948,250263
1630679476082,49322,251385,248758
1630679476092,48947,249829,246694
1630679476102,48589,248272,244819
1630679476112,48394,246993,243860
1630679476122,48531,247029,244575
1630679476132,48845,248282,245707
1630679476142,49439,251866,248380
1630679476152,50302,257525,252580
1630679476162,51348,265748,257676
1630679476172,51987,273742,261584
1630679476182,52237,280121,264160
1630679476192,52324,284595,265543
1630679476202,52154,285941,265169
1630679476212,51568,283930,262300
1630679476222,50573,278739,257175
1630679476232,48981,270287,249152
1630679476242,47052,259448,239564
1630679476252,45489,249520,231650
1630679476262,44342,241449,225895
1630679476272,43581,235221,221946
1630679476282,43035,230464,219188
1630679476292,42836,226967,218560
1630679476302,43003,224502,219176
1630679476312,42762,219574,216908
1630679476322,41684,211208,209978
1630679476332,39981,201813,200523
1630679476342,38591,193898,191818
1630679476352,37583,190320,187029
1630679476362,37285,192308,187102
1630679476372,38130,200587,193960
1630679476382,40595,215440,208907
1630679476392,44339,233334,227204
1630679476402,48205,250713,242308
1630679476412,50574,263231,250650
1630679476422,52026,270729,255809
1630679476432,53124,275770,260845
1630679476442,54504,281441,267902
1630679476452,56197,288001,276374
1630679476462,57901,295035,284656
1630679476472,59272,302270,292502
1630679476482,60725,309561,299891
1630679476492,62105,317596,307073
1630679476502,63422,325807,313754
1630679476512,64575,333094,319350
1630679476522,65563,339184,324255
1630679476532,66177,343069,328292
1630679476542,66423,344553,331470
1630679476552,66268,345105,333784
1630679476562,66004,345063,335194
1630679476572,65618,343940,335260
1630679476582,65558,342888,335353
1630679476592,65652,342174,335572
1630679476602,65815,342152,336018
1630679476612,66203,342921,336795
1630679476622,66723,344198,337402
1630679476632,67415,345819,337325
1630679476642,68055,347570,336670
1630679476652,68392,349026,335439
1630679476662,68486,349265,333799
1630679476672,68402,348508,331772
1630679476682,68252,347206,329497
1630679476692,67998,345247,326946
1630679476702,67716,342907,324652
1630679476712,67508,341454,323545
1630679476722,67492,341574,323333
1630679476732,67575,343585,323545
1630679476742,67756,347325,324442
1630679476752,68001,352086,325584
1630679476762,68118,356145,326821
1630679476772,68037,357688,326816
1630679476782,67811,356512,325774
1630679476792,67563,354037,324378
1630679476802,67233,351422,322741
1630679476812,66944,349679,321619
1630679476822,66611,349138,321075
1630679476832,66250,349611,320854
1630679476842,65936,350468,320693
1630679476852,65763,351740,320997
1630679476862,65703,353797,321586
1630679476872,65685,356203,322308
1630679476882,65632,358679,323007
1630679476892,65612,361022,323798
1630679476902,65606,362761,324507
1630679476912,65819,363538,325182
1630679476922,66262,363428,325983
1630679476932,66876,362536,326830
1630679476942,67410,360735,327209
1630679476952,67841,358248,327137
1630679476962,68083,355581,326644
1630679476972,68073,353260,325558
1630679476982,67829,351832,324011
1630679476992,67442,350924,321923
1630679477002,66969,350514,319542
1630679477012,66627,350462,317767
1630679477022,66569,350753,317414
1630679477032,66767,351207,318039
1630679477042,67170,351451,319295
1630679477052,67505,350921,319893
1630679477062,67561,349194,319192
1630679477072,67341,346517,317472
1630679477082,67071,344428,316120
1630679477092,66962,344756,315729
1630679477102,67056,348192,316966
1630679477112,67272,353738,320688
1630679477122,67647,360024,325096
1630679477132,67856,365379,328729
1630679477142,67730,369060,330572
1630679477152,67313,370665,330424
1630679477162,67054,370885,329843
1630679477172,67131,370485,329480
1630679477182,67456,369856,329764
1630679477192,68006,369926,331270
1630679477202,68577,370580,333237
1630679477212,69124,371464,335426
1630679477222,69415,372673,337250
1630679477232,69332,373881,338113
1630679477242,68988,374425,337777
1630679477252,68611,374527,336982
1630679477262,68422,374220,336387
1630679477272,68385,373599,335752
1630679477282,68571,372766,335466
1630679477292,69019,371732,335529
1630679477302,69546,370152,335527
1630679477312,70127,367376,335165
1630679477322,70508,363199,334094
1630679477332,70507,358342,332410
1630679477342,70085,353840,329942
1630679477352,69485,351005,327406
1630679477362,68961,349383,325409
1630679477372,68724,348963,324256
1630679477382,68712,349573,324123
1630679477392,68872,350677,324689
1630679477402,69041,351590,324965
1630679477412,69121,351675,325046
1630679477422,69078,350602,324324
1630679477432,68894,348472,322913
1630679477442,68629,345975,321283
1630679477452,68301,342875,319445
1630679477462,67917,339525,317592
1630679477472,67574,336668,316339
1630679477482,67382,335287,315961
1630679477492,67487,336540,316760
1630679477502,67846,340097,318700
1630679477512,68268,344026,320963
1630679477522,68610,347342,323107
1630679477532,68903,349747,324720
1630679477542,68997,350311,325197
1630679477552,68994,349011,325067
1630679477562,68970,346551,324452
1630679477572,68827,344074,323458
1630679477582,68529,342221,322372
1630679477592,68293,341899,321904
1630679477602,68255,342625,322155
1630679477612,68332,343667,322933
1630679477622,68539,345395,324233
1630679477632,68829,347144,325796
1630679477642,69057,348532,326997
1630679477652,69191,348911,327575
1630679477662,69194,348316,327375
1630679477672,69083,346578,326774
1630679477682,68838,343621,325739
1630679477692,68579,340237,324541
1630679477702,68300,337272,324013
1630679477712,68284,335091,324181
1630679477722,68456,334241,324787
1630679477732,68703,335288,325504
1630679477742,68961,338228,325657
1630679477752,69238,342659,326069
1630679477762,69448,347501,326413
1630679477772,69666,352066,327218
1630679477782,69840,355407,327880
1630679477792,69933,357739,328190
1630679477802,70013,358749,328259
1630679477812,70013,358633,327832
1630679477822,69866,357547,326574
1630679477832,69775,355590,325527
1630679477842,69933,353815,325737
1630679477852,70423,353328,328262
1630679477862,71442,354830,333489
1630679477872,72736,358060,340795
1630679477882,74347,361300,348535
1630679477892,75842,363750,355187
1630679477902,76332,364047,358326
1630679477912,75869,363361,357355
1630679477922,74635,361267,352713
1630679477932,73608,358939,347948
1630679477942,73240,357615,346354
1630679477952,73389,357636,347559
1630679477962,73951,359030,351112
1630679477972,75005,362127,356146
1630679477982,75995,366056,361048
1630679477992,76546,371072,365246
1630679478002,76628,376587,368227
1630679478012,76128,379582,368796
1630679478022,75274,380250,367568
1630679478032,74514,379932,365746
1630679478042,73998,378888,363822
1630679478052,73827,377210,361909
1630679478062,73862,375116,359978
1630679478072,73823,372588,357762
1630679478082,73452,370317,354970
1630679478092,72965,368800,352164
1630679478102,72558,368503,349768
1630679478112,72158,368628,347760
1630679478122,71640,368918,345724
1630679478132,71047,369075,343549
1630679478142,70519,368991,341595
1630679478152,70080,368748,340067
1630679478162,69899,368250,339123
1630679478172,69930,367343,338597
1630679478182,70100,366005,338038
1630679478192,70212,363934,337648
1630679478202,70238,361254,337504
1630679478212,70238,358309,337306
1630679478222,70141,355595,337010
1630679478232,69959,353898,336942
1630679478242,69936,354201,337521
1630679478252,70047,357038,338416
1630679478262,69878,361923,339426
1630679478272,69363,366258,340023
1630679478282,68615,368904,340765
1630679478292,67883,370771,342870
1630679478302,67669,371795,345025
1630679478312,67923,372314,347420
1630679478322,68362,372689,349407
1630679478332,68604,373076,350349
1630679478342,68423,373083,350122
1630679478352,67952,372790,349164
1630679478362,67322,372230,347683
1630679478372,66918,371873,346822
1630679478382,66803,371708,346581
1630679478392,66848,371857,346907
1630679478402,66965,372209,347444
1630679478412,67081,372569,347901
1630679478422,67223,372950,348349
1630679478432,67451,373170,348650
1630679478442,67752,373228,348702
1630679478452,68183,373252,348902
1630679478462,68719,372995,349001
1630679478472,69290,372260,348894
1630679478482,69820,371209,348481
1630679478492,70144,369887,347192
1630679478502,70228,368679,345239
1630679478512,70042,367736,342883
1630679478522,69587,367258,340790
1630679478532,69196,367421,339362
1630679478542,68908,368051,338366
1630679478552,68820,369013,338384
1630679478562,69034,370012,339133
1630679478572,69262,370830,339802
1630679478582,69417,371370,340185
1630679478592,69500,371543,340159
1630679478602,69522,371333,339882
1630679478612,69561,371015,339416
1630679478622,69695,370625,339380
1630679478632,70147,371022,340897
1630679478642,71133,372813,345197
1630679478652,72411,376304,352391
1630679478662,73963,380583,359234
1630679478672,75293,383220,364723
1630679478682,75907,385365,369051
1630679478692,75811,386130,371196
1630679478702,75485,385847,370905
1630679478712,74834,384463,368679
1630679478722,73999,382663,365165
1630679478732,73187,381215,361106
1630679478742,72417,380415,357640
1630679478752,71973,380409,356261
1630679478762,71990,381087,357089
1630679478772,72427,382518,359587
1630679478782,73276,384694,363763
1630679478792,74202,386959,368516
1630679478802,74830,388719,372107
1630679478812,74758,389211,373343
1630679478822,74224,388483,372155
1630679478832,73563,386879,369416
1630679478842,72984,384631,365997
1630679478852,72775,381874,363142
1630679478862,73109,379362,361938
1630679478872,73493,377095,361539
1630679478882,73818,375109,360839
1630679478892,73951,373712,359690
1630679478902,73757,372752,357581
1630679478912,73136,372038,354356
1630679478922,72163,371568,350569
1630679478932,71415,371311,347651
1630679478942,71010,371152,345890
1630679478952,70871,371082,344831
1630679478962,70784,370837,343825
1630679478972,70758,370320,342712
1630679478982,70761,369563,341340
1630679478992,70797,368604,340489
1630679479002,70907,367538,339890
1630679479012,71212,366579,340270
1630679479022,71942,366634,342171
1630679479032,72942,368544,345444
1630679479042,73663,371670,349121
1630679479052,74178,375585,352265
1630679479062,74333,378147,353819
1630679479072,74352,380105,354900
1630679479082,74334,380900,355068
1630679479092,74565,380799,355795
1630679479102,75266,381107,357609
1630679479112,75759,381310,358408
1630679479122,75426,380826,356913
1630679479132,74450,379786,353923
1630679479142,73453,378933,351386
1630679479152,72849,378283,350247
1630679479162,72859,378361,351237
1630679479172,73398,379042,353573
1630679479182,73958,379740,355862
1630679479192,74399,380108,357560
1630679479202,74690,379760,358507
1630679479212,74764,378577,358488
1630679479222,74701,376667,357547
1630679479232,74507,374140,355935
1630679479242,74226,371334,353693
1630679479252,74042,368816,351336
1630679479262,73877,366915,349386
1630679479272,73664,365948,347762
1630679479282,73311,366053,346088
1630679479292,72848,366756,344269
1630679479302,72265,367818,341943
1630679479312,71534,368713,339258
1630679479322,70946,369567,337278
1630679479332,70681,370021,336423
1630679479342,70752,370694,336670
1630679479352,71183,371277,337957
1630679479362,71714,371809,339680
1630679479372,72107,371781,340750
1630679479382,72098,371030,340296
1630679479392,71748,369644,338341
1630679479402,71362,368439,336686
1630679479412,71154,367365,335688
1630679479422,71433,367191,336767
1630679479432,72321,368580,340149
1630679479442,73603,371454,345209
1630679479452,75030,375183,351016
1630679479462,76063,378679,355654
1630679479472,76735,381515,358519
1630679479482,76635,382327,358251
1630679479492,75481,380356,354501
1630679479502,73795,377375,349049
1630679479512,72269,374971,343883
1630679479522,71224,374045,340526
1630679479532,70660,373873,339302
1630679479542,70466,374094,339645
1630679479552,70629,374743,341573
1630679479562,71207,375777,344805
1630679479572,71744,376694,347591
1630679479582,72102,377187,349885
1630679479592,72291,377425,351432
1630679479602,72125,377357,351580
1630679479612,71642,376817,350563
1630679479622,71082,375953,349362
1630679479632,70734,375155,348353
1630679479642,70446,374553,347716
1630679479652,70348,374173,347474
1630679479662,70383,374023,347730
1630679479672,70403,373863,347765
1630679479682,70093,373490,346906
1630679479692,69445,372958,344881
1630679479702,68532,372395,341473
1630679479712,67413,371706,336669
1630679479722,66497,371110,332388
1630679479732,65881,370642,328962
1630679479742,65324,370178,326159
1630679479752,64886,369782,323992
1630679479762,64362,369165,321633
1630679479772,63687,368352,318889
1630679479782,62932,367252,315642
1630679479792,62197,365921,312534
1630679479802,61742,365241,310991
1630679479812,61773,365891,311695
1630679479822,62115,367515,313609
1630679479832,62590,369104,316077
1630679479842,63194,370377,318849
1630679479852,63915,371325,321717
1630679479862,64688,371663,324050
1630679479872,65148,370526,324358
1630679479882,65598,369111,324671
1630679479892,65826,367422,324316
1630679479902,65657,365914,323085
1630679479912,64958,364667,320431
1630679479922,63998,363572,317307
1630679479932,63415,363078,315670
1630679479942,63429,363242,316071
1630679479952,63979,364086,318441
1630679479962,64967,365227,322126
1630679479972,65857,365806,325376
1630679479982,66510,365876,327574
1630679479992,66863,365181,328589
1630679480002,67205,363669,329303
1630679480012,67582,360154,329161
1630679480022,67841,355211,327912
1630679480032,67816,349208,325712
1630679480042,67317,341129,322287
1630679480052,66386,333560,318389
1630679480062,65505,328455,315382
1630679480072,64888,326475,313640
1630679480082,64529,326475,312742
1630679480092,64310,327500,312096
1630679480102,64248,329244,311699
1630679480112,64319,330973,311328
1630679480122,64269,331549,310546
1630679480132,63898,331015,309154
1630679480142,63415,329687,307252
1630679480152,62823,327483,305027
1630679480162,62119,324685,302442
1630679480172,61467,321044,299860
1630679480182,60617,314668,296495
1630679480192,59094,305284,291812
1630679480202,57430,297270,287398
1630679480212,56290,292418,284103
1630679480222,55562,289676,281785
1630679480232,55402,289952,282177
1630679480242,55958,293341,285167
1630679480252,56909,298708,289281
1630679480262,57998,304877,293216
1630679480272,58852,309881,295776
1630679480282,59243,312927,296544
1630679480292,59241,314326,296573
1630679480302,59044,315352,296515
1630679480312,59135,318166,297919
1630679480322,59448,322666,300504
1630679480332,59854,327139,303386
1630679480342,60218,330677,305766
1630679480352,60519,333444,307504
1630679480362,60706,335942,308651
1630679480372,60693,337794,309123
1630679480382,60561,338722,309083
1630679480392,60351,338744,308429
1630679480402,60113,337677,307368
1630679480412,59893,336022,306324
1630679480422,59745,334305,305512
1630679480432,59562,332571,304750
1630679480442,59269,331321,304019
1630679480452,58834,330789,303368
1630679480462,58368,330716,302743
1630679480472,57857,330897,302064
1630679480482,57351,331414,301181
1630679480492,56852,332107,300123
1630679480502,56355,332638,298853
1630679480512,55839,332880,297371
1630679480522,55313,332690,295794
1630679480532,54726,332183,294118
1630679480542,54078,331052,292223
1630679480552,53492,329724,290683
1630679480562,53086,328280,289715
1630679480572,52997,327250,289717
1630679480582,53250,326681,290693
1630679480592,53711,326598,292219
1630679480602,54280,326635,293631
1630679480612,54574,326973,293523
1630679480622,54501,327383,292170
1630679480632,54148,328387,291046
1630679480642,53691,329612,290220
1630679480652,53174,330845,289152
1630679480662,52616,331305,287447
1630679480672,52004,330742,284921
1630679480682,51218,329382,281714
1630679480692,50090,327862,277957
1630679480702,48865,326678,274653
1630679480712,47624,326032,272061
1630679480722,47053,326255,271502
1630679480732,47470,327317,273248
1630679480742,48959,329575,277822
1630679480752,51122,332951,284449
1630679480762,53600,336993,292242
1630679480772,56114,341162,300096
1630679480782,58374,344503,306754
1630679480792,60165,346370,311548
1630679480802,61528,346683,314415
1630679480812,62477,344544,315316
1630679480822,62545,339349,313565
1630679480832,61623,330637,309210
1630679480842,60560,321868,304545
1630679480852,59795,317872,301681
1630679480862,60682,322735,306135
1630679480872,62532,333289,315307
1630679480882,64815,346287,326117
1630679480892,66505,357161,335060
1630679480902,68351,365412,344727
1630679480912,68929,368433,348922
1630679480922,69075,370045,351173
1630679480932,69033,371104,352355
1630679480942,68907,371350,352496
1630679480952,68527,371331,352417
1630679480962,67893,369972,351160
1630679480972,67209,367032,349489
1630679480982,66155,363313,347130
1630679480992,65055,361375,344578
1630679481002,63694,359483,341782
1630679481012,62014,357844,338352
1630679481022,60023,356744,333641
1630679481032,57968,355800,327269
1630679481042,56245,354811,321013
1630679481052,54911,353367,314971
1630679481062,53715,351859,309355
1630679481072,52554,349842,303979
1630679481082,51355,347207,299097
1630679481092,50408,345042,295215
1630679481102,49679,343608,292965
1630679481112,49102,342629,291712
1630679481122,48703,341941,291288
1630679481132,48477,341687,291396
1630679481142,48419,341714,292090
1630679481152,48482,341745,292872
1630679481162,48546,341561,293612
1630679481172,48612,341334,294317
1630679481182,48725,340971,294904
1630679481192,48932,340512,295802
1630679481202,49377,340256,297535
1630679481212,49972,340021,299661
1630679481222,50714,339860,302086
1630679481232,51499,339700,304902
1630679481242,52314,339509,307653
1630679481252,52882,339271,309463
1630679481262,53258,339139,310605
1630679481272,53448,339098,311283
1630679481282,53549,339062,311566
1630679481292,53633,339032,311578
1630679481302,53812,339071,311719
1630679481312,54023,339092,312008
1630679481322,54325,339103,312561
1630679481332,54741,339154,313510
1630679481342,55263,338717,314374
1630679481352,55958,338179,315340
1630679481362,56592,337386,315924
1630679481372,57160,336344,316181
1630679481382,57598,335403,316279
1630679481392,57838,334571,315922
1630679481402,57786,334175,315165
1630679481412,57555,334332,314336
1630679481422,57089,335061,313389
1630679481432,56319,335467,311794
1630679481442,55594,335450,309825
1630679481452,55256,334957,308406
1630679481462,55334,334395,307919
1630679481472,55575,333547,307719
1630679481482,55738,332706,307669
1630679481492,55805,332134,307710
1630679481502,55706,332237,307932
1630679481512,55519,332637,308164
1630679481522,55319,332994,308248
1630679481532,55118,333412,308119
1630679481542,54838,333768,307636
1630679481552,54480,333881,306630
1630679481562,54151,333467,305376
1630679481572,53902,332832,304024
1630679481582,53765,332045,303035
1630679481592,53713,331132,302381
1630679481602,53856,330226,302368
1630679481612,54193,329544,302872
1630679481622,54635,329128,303846
1630679481632,55063,329152,304946
1630679481642,55373,329243,305831
1630679481652,55514,329452,306426
1630679481662,55495,329672,306642
1630679481672,55361,329561,306355
1630679481682,55194,329507,306124
1630679481692,55028,329327,305704
1630679481702,54832,329036,305118
1630679481712,54594,328611,304271
1630679481722,54286,328120,303166
1630679481732,53953,327452,302006
1630679481742,53664,326840,301076
1630679481752,53480,326451,300436
1630679481762,53412,326276,300275
1630679481772,53443,326131,300488
1630679481782,53532,326211,301037
1630679481792,53613,326457,301453
1630679481802,53577,326662,301327
1630679481812,53121,326460,299604
1630679481822,51903,325447,295726
1630679481832,50006,323739,290612
1630679481842,47777,321577,285297
1630679481852,45561,319229,280247
1630679481862,43377,316620,275630
1630679481872,41429,313970,271886
1630679481882,39961,312140,269696
1630679481892,39291,311599,269470
1630679481902,38835,312061,270219
1630679481912,38487,312591,270556
1630679481922,38101,313071,270410
1630679481932,37913,313804,270499
1630679481942,38158,315385,271736
1630679481952,38211,316979,272395
1630679481962,37706,317224,271765
1630679481972,37058,316894,270957
1630679481982,36528,316582,270495
1630679481992,36150,316437,270443
1630679482002,35930,316473,270765
1630679482012,35931,316838,271737
1630679482022,36088,317401,273065
1630679482032,36458,318171,274783
1630679482042,36740,318842,276325
1630679482052,36867,319296,277633
1630679482062,36602,319226,278134
1630679482072,36140,318868,278164
1630679482082,35566,318327,277830
1630679482092,35054,317810,277448
1630679482102,34655,317277,277183
1630679482112,34426,316946,277047
1630679482122,34401,316805,277229
1630679482132,34502,316757,277517
1630679482142,34599,316742,277883
1630679482152,34623,316671,278208
1630679482162,34543,316383,278473
1630679482172,34395,316039,278785
1630679482182,34144,315608,279038
1630679482192,33721,315008,278867
1630679482202,33150,314179,278301
1630679482212,32473,313334,277485
1630679482222,31738,312520,276378
1630679482232,31218,312095,275699
1630679482242,31234,312557,276232
1630679482252,31403,312880,276980
1630679482262,31649,313078,277539
1630679482272,31899,313107,277740
1630679482282,32022,312893,277620
1630679482292,32015,312730,277370
1630679482302,31803,312362,277027
1630679482312,31388,311724,276644
1630679482322,30827,310902,276353
1630679482332,30311,310137,276237
1630679482342,29944,309583,276478
1630679482352,29653,309169,276807
1630679482362,29446,308820,277072
1630679482372,29314,308579,277113
1630679482382,29259,308352,277096
1630679482392,29230,308172,276909
1630679482402,29227,307931,276737
1630679482412,29212,307736,276541
1630679482422,29304,307815,276381
1630679482432,29451,307938,276176
1630679482442,29649,308148,276153
1630679482452,29829,308338,276213
1630679482462,29943,308465,276151
1630679482472,29981,308556,275996
1630679482482,30063,308723,275917
1630679482492,30257,309064,275977
1630679482502,30641,309603,276408
1630679482512,31362,310735,277513
1630679482522,32389,312989,279315
1630679482532,34480,317232,284238
1630679482542,39178,326444,297562
1630679482552,44771,334637,308132
1630679482562,47139,338008,313382
1630679482572,49557,341151,318663
1630679482582,50959,343582,322707
1630679482592,52162,345889,325896
1630679482602,52518,346618,327094
1630679482612,52516,346946,327601
1630679482622,52187,346963,327575
1630679482632,51748,347152,327647
1630679482642,51555,347854,328358
1630679482652,51732,348784,329461
1630679482662,52309,349884,331347
1630679482672,53199,350987,333634
1630679482682,53656,351515,334490
1630679482692,53627,351423,334119
1630679482702,53035,350873,332085
1630679482712,51849,349614,328519
1630679482722,50304,347915,324366
1630679482732,49076,346551,321271
1630679482742,48595,346157,320485
1630679482752,48492,345964,320392
1630679482762,48366,345689,320240
1630679482772,48323,345400,320223
1630679482782,48310,344909,320082
1630679482792,48146,343926,319324
1630679482802,48142,342702,319052
1630679482812,48100,341353,318380
1630679482822,47654,339657,316879
1630679482832,46624,337762,314163
1630679482842,45268,335784,311033
1630679482852,43954,334046,308068
1630679482862,42979,332596,305746
1630679482872,42309,331506,304129
1630679482882,41853,330607,303003
1630679482892,41325,329646,301662
1630679482902,40777,328630,300419
1630679482912,40300,327677,299302
1630679482922,39893,326864,298305
1630679482932,39649,326180,297648
1630679482942,39503,325677,297246
1630679482952,39279,325197,296626
1630679482962,38827,324326,295559
1630679482972,38118,323261,294023
1630679482982,37223,321941,292021
1630679482992,36258,320448,289950
1630679483002,35170,318766,287583
1630679483012,34079,317123,285254
1630679483022,32946,315548,282781
1630679483032,31692,313780,279846
1630679483042,30665,312488,277498
1630679483052,29999,311776,276187
1630679483062,29665,311446,275617
1630679483072,29603,311405,275372
1630679483082,29687,311462,275165
1630679483092,29702,311447,274619
1630679483102,29488,311134,273637
1630679483112,29004,310534,272368
1630679483122,28417,309867,271344
1630679483132,27881,309176,270752
1630679483142,27464,308642,270520
1630679483152,27133,308125,270368
1630679483162,26838,307693,270244
1630679483172,26537,307262,270004
1630679483182,26291,306857,269674
1630679483192,26125,306516,269391
1630679483202,25989,306189,269005
1630679483212,25846,305763,268586
1630679483222,25614,305262,268209
1630679483232,25271,304602,267784
1630679483242,24820,303664,266911
1630679483252,24289,302207,265564
1630679483262,24020,300798,264186
1630679483272,23643,299775,263124
1630679483282,23360,299016,262296
1630679483292,23158,298518,261796
1630679483302,22978,298033,261309
1630679483312,22838,297597,260737
1630679483322,22742,297288,259968
1630679483332,22712,296964,259232
1630679483342,22705,296686,258465
1630679483352,22696,296511,257917
1630679483362,22709,296378,257560
1630679483372,22656,296250,257195
1630679483382,22530,296206,256983
1630679483392,22354,296324,256819
1630679483402,22217,296439,256737
1630679483412,22085,296345,256496
1630679483422,21995,296186,255945
1630679483432,22071,296127,255221
1630679483442,22269,296378,254298
1630679483452,22272,296349,252919
1630679483462,20860,293459,248142
1630679483472,19860,291748,245238
1630679483482,19385,291273,244121
1630679483492,19121,291198,243921
1630679483502,18956,291219,244030
1630679483512,18913,291462,244677
1630679483522,18989,291880,245596
1630679483532,19259,292355,246459
1630679483542,19599,292882,247096
1630679483552,20096,293500,247931
1630679483562,20788,294432,249362
1630679483572,21665,295744,251168
1630679483582,22734,297348,253400
1630679483592,23923,299096,255904
1630679483602,25330,301363,258971
1630679483612,27130,304456,263000
1630679483622,29995,309427,269354
1630679483632,33930,315886,277390
1630679483642,38311,322084,287372
1630679483652,42518,327045,296375
1630679483662,45365,329777,301598
1630679483672,46399,329696,301461
1630679483682,47273,330792,302518
1630679483692,48589,332901,305365
1630679483702,49966,335236,308805
1630679483712,51444,338571,313233
1630679483722,53073,342190,318075
1630679483732,54072,345940,322561
1630679483742,54292,349527,326341
1630679483752,54399,352856,328706
1630679483762,54953,355018,330482
1630679483772,55590,356256,331569
1630679483782,55984,357105,332085
1630679483792,56307,357474,332177
1630679483802,56556,357751,332578
1630679483812,56634,357830,332795
1630679483822,56812,357919,333193
1630679483832,57055,357897,333702
1630679483842,57501,357703,334446
1630679483852,57855,357398,335134
1630679483862,58179,357228,335728
1630679483872,58175,357275,336010
1630679483882,58041,357405,335834
1630679483892,57948,357571,335686
1630679483902,58046,357838,335858
1630679483912,58289,357960,336325
1630679483922,58424,358085,337058
1630679483932,58465,358139,337831
1630679483942,58405,358207,338400
1630679483952,58318,358273,338774
1630679483962,58358,358464,339119
1630679483972,58397,358875,339616
1630679483982,58605,359312,340298
1630679483992,58833,359699,341224
1630679484002,59225,359923,341510
1630679484012,59223,360024,341776
1630679484022,59234,360045,341976
1630679484032,59239,360023,342160
1630679484042,59112,359977,342308
1630679484052,59080,359947,342538
1630679484062,59045,359884,342727
1630679484072,58950,359841,342801
1630679484082,58823,359766,342839
1630679484092,58686,359713,342798
1630679484102,58486,359643,342644
1630679484112,58260,359506,342460
1630679484122,58029,359346,342207
1630679484132,57788,359206,341881
1630679484142,57597,359141,341753
1630679484152,57482,359113,341682
1630679484162,57421,359098,341689
1630679484172,57367,359004,341665
1630679484182,57279,359023,341586
1630679484192,57137,358896,341354
1630679484202,56985,358795,341104
1630679484212,56778,358575,340787
1630679484222,56644,358443,340651
1630679484232,56622,358349,340872
1630679484242,56880,358521,341631
1630679484252,57413,358868,342923
1630679484262,58034,359255,344304
1630679484272,58358,359249,345102
1630679484282,58216,358923,344932
1630679484292,57844,358330,344424
1630679484302,57589,357940,344123
1630679484312,57441,357673,343967
1630679484322,57471,357664,344146
1630679484332,57769,357991,344804
1630679484342,58178,358351,345560
1630679484352,58405,358631,346184
1630679484362,58370,358541,346368
1630679484372,58221,358240,346379
1630679484382,58145,358142,346377
1630679484392,58156,358039,346431
1630679484402,58157,357996,346461
1630679484412,58051,357815,346305
1630679484422,57870,357546,346019
1630679484432,57623,357357,345581
1630679484442,57388,357073,345126
1630679484452,57158,356944,344711
1630679484462,56934,356781,344183
1630679484472,56786,356735,343843
1630679484482,56635,356733,343566
1630679484492,56478,356644,343289
1630679484502,56306,356503,342992
1630679484512,56100,356311,342678
1630679484522,55882,356119,342370
1630679484532,55625,355935,341982
1630679484542,55388,355669,341655
1630679484552,55173,355489,341373
1630679484562,54991,355412,341129
1630679484572,54841,355296,340975
1630679484582,54722,355168,340881
1630679484592,54633,355127,340808
1630679484602,54574,355037,340808
1630679484612,54567,355015,340836
1630679484622,54606,355020,341018
1630679484632,54673,355095,341270
1630679484642,54897,355362,341964
1630679484652,55476,355911,343291
1630679484662,56315,356694,345175
1630679484672,56967,357081,346483
1630679484682,56987,356790,346363
1630679484692,56565,356200,345432
1630679484702,56073,355594,344322
1630679484712,55826,355481,343709
1630679484722,55962,355825,343891
1630679484732,56399,356333,344914
1630679484742,56992,356833,346359
1630679484752,57148,356951,346577
1630679484762,57241,357030,346965
1630679484772,57347,357232,347142
1630679484782,57463,357494,347232
1630679484792,57525,357614,347370
1630679484802,57543,357630,347507
1630679484812,57554,357630,347634
1630679484822,57485,357547,347628
1630679484832,57449,357399,347564
1630679484842,57312,357233,347336
1630679484852,57265,357195,347478
1630679484862,57215,357154,347551
1630679484872,57143,357068,347698
1630679484882,57043,356951,347684
1630679484892,56883,356698,347522
1630679484902,56626,356376,347162
1630679484912,56285,355983,346547
1630679484922,55949,355617,345917
1630679484932,55640,355273,345397
1630679484942,55478,355092,345148
1630679484952,55415,354925,345150
1630679484962,55397,354879,345254
1630679484972,55432,354875,345432
1630679484982,55438,354760,345471
1630679484992,55402,354670,345441
1630679485002,55341,354485,345307
1630679485012,55251,354269,345156
1630679485022,55273,354254,345378
1630679485032,55487,354378,346072
1630679485042,56029,354921,347532
1630679485052,56770,355570,349229
1630679485062,57276,355813,350317
1630679485072,57144,355357,349904
1630679485082,56681,354595,349046
1630679485092,56285,353835,348298
1630679485102,56016,353245,347752
1630679485112,55874,352913,347610
1630679485122,55878,352846,347862
1630679485132,56074,352846,348298
1630679485142,56264,352781,348714
1630679485152,56039,352240,348580
1630679485162,55561,351306,347712
1630679485172,55064,350677,346913
1630679485182,54759,350366,346402
1630679485192,54554,350281,345848
1630679485202,54317,350045,345314
1630679485212,53979,349834,344656
1630679485222,53658,349508,343624
1630679485232,53243,349045,342596
1630679485242,52828,348697,341715
1630679485252,52487,348383,340790
1630679485262,52148,348187,340096
1630679485272,51960,348015,339288
1630679485282,51601,347760,338952
1630679485292,51456,347664,338228
1630679485302,51174,347369,337986
1630679485312,51005,347204,337665
1630679485322,50824,346977,337276
1630679485332,50669,346871,337071
1630679485342,50468,346615,336786
1630679485352,50253,346338,336410
1630679485362,50085,346222,336210
1630679485372,49981,346185,336098
1630679485382,49899,346110,336059
1630679485392,49813,345994,335989
1630679485402,49738,345867,335971
1630679485412,49662,345775,335899
1630679485422,49700,345747,336202
1630679485432,49967,346108,336980
1630679485442,50382,346615,338074
1630679485452,50769,347063,338962
1630679485462,50945,347084,339168
1630679485472,50823,346747,338742
1630679485482,50570,346240,338012
1630679485492,50364,345818,337427
1630679485502,50316,345836,337265
1630679485512,50397,345593,337256
1630679485522,50568,345804,337635
1630679485532,50928,346145,338535
1630679485542,51138,346235,338851
1630679485552,50916,345858,338225
1630679485562,50696,345649,337565
1630679485572,50528,345506,337178
1630679485582,50290,345203,336691
1630679485592,50049,344882,336085
1630679485602,49762,344481,335370
1630679485612,49595,344331,335069
1630679485622,49458,344220,334673
1630679485632,49260,343991,334263
1630679485642,49004,343737,333889
1630679485652,48738,343504,333533
1630679485662,48360,343155,332786
1630679485672,48091,342998,332292
1630679485682,47867,342828,331906
1630679485692,47620,342497,331351
1630679485702,47481,342525,331068
1630679485712,47311,342327,330920
1630679485722,47082,341979,330263
1630679485732,46840,341802,330046
1630679485742,46676,341610,329526
1630679485752,46474,341438,329263
1630679485762,46373,341297,329042
1630679485772,46284,341113,328959
1630679485782,46227,340997,329000
1630679485792,46231,340937,329188
1630679485802,46345,340954,329633
1630679485812,46630,341070,330212
1630679485822,46948,341465,330991
1630679485832,47193,341803,331296
1630679485842,47222,341534,331205
1630679485852,47010,341085,330395
1630679485862,46799,340513,329679
1630679485872,46674,340143,329436
1630679485882,46731,339995,329451
1630679485892,46704,340004,329624
1630679485902,46941,340327,330300
1630679485912,47080,340333,330587
1630679485922,47065,340174,330525
1630679485932,46840,339867,330230
1630679485942,46762,339700,329972
1630679485952,46894,339925,330282
1630679485962,47089,340241,330690
1630679485972,47211,340336,330890
1630679485982,47239,340357,331027
1630679485992,47248,340445,331057
1630679486002,47229,340379,331043
1630679486012,47180,340333,330926
1630679486022,47107,340228,330848
1630679486032,46920,339902,330334
1630679486042,46766,339727,330072
1630679486052,46690,339644,329989
1630679486062,46641,339536,329955
1630679486072,46608,339425,329945
1630679486082,46533,339309,329812
1630679486092,46330,339027,329351
1630679486102,46094,338739,328897
1630679486112,45872,338462,328452
1630679486122,45666,338285,328130
1630679486132,45485,338201,327972
1630679486142,45423,338149,327843
1630679486152,45416,338324,327734
1630679486162,45351,338318,327895
1630679486172,45332,338440,327913
1630679486182,45382,338653,328215
1630679486192,45496,338877,328643
1630679486202,45772,339414,329502
1630679486212,46301,340295,330906
1630679486222,46763,340861,331976
1630679486232,46897,341024,332101
1630679486242,46773,340720,331647
1630679486252,46509,340267,330867
1630679486262,46249,339764,330201
1630679486272,46021,339313,329756
1630679486282,45894,338988,329620
1630679486292,45744,338651,329130
1630679486302,45486,338218,328503
1630679486312,45140,337786,327551
1630679486322,44993,337638,327363
1630679486332,45021,337683,327378
1630679486342,44900,337510,327120
1630679486352,44792,337527,326903
1630679486362,44780,337479,326802
1630679486372,44672,337314,326431
1630679486382,44707,337493,326514
1630679486392,44864,337850,326886
1630679486402,45111,338264,327478
1630679486412,45444,338939,328248
1630679486422,45750,339482,328910
1630679486432,46016,340052,329508
1630679486442,46230,340497,329956
1630679486452,46414,340830,330345
1630679486462,46499,341046,330541
1630679486472,46531,341043,330485
1630679486482,46456,340948,330212
1630679486492,46326,340763,329819
1630679486502,46129,340534,329353
1630679486512,45928,340263,328907
1630679486522,45726,339918,328399
1630679486532,45548,339635,328000
1630679486542,45469,339505,327816
1630679486552,45416,339339,327598
1630679486562,45344,339347,327316
1630679486572,45274,339193,327193
1630679486582,45274,339099,326987
1630679486592,45204,338985,326993
1630679486602,45290,339107,327270
1630679486612,45474,339298,327680
1630679486622,45712,339525,328239
1630679486632,45875,339630,328621
1630679486642,45918,339501,328761
1630679486652,45796,339059,328343
1630679486662,45576,338689,328005
1630679486672,45472,338444,327808
1630679486682,45437,338327,327756
1630679486692,45503,338438,328082
1630679486702,45629,338525,328481
1630679486712,45755,338578,328792
1630679486722,45840,338551,329026
1630679486732,45791,338312,328948
1630679486742,45721,338182,328918
1630679486752,45717,338161,328924
1630679486762,45856,338369,329380
1630679486772,45997,338632,329655
1630679486782,46095,338786,329796
1630679486792,46140,338881,329861
1630679486802,46247,339058,330065
1630679486812,46345,339275,330241
1630679486822,46473,339451,330511
1630679486832,46596,339702,330757
1630679486842,46702,339928,331035
1630679486852,46790,340033,331220
1630679486862,46880,340120,331361
1630679486872,46929,340299,331547
1630679486882,46935,340365,331512
1630679486892,46915,340357,331471
1630679486902,46872,340406,331407
1630679486912,46823,340445,331322
1630679486922,46793,340562,331275
1630679486932,46785,340601,331314
1630679486942,46792,340743,331330
1630679486952,46787,340828,331364
1630679486962,46791,340953,331393
1630679486972,46736,340875,331257
1630679486982,46675,340876,331119
1630679486992,46679,340927,331131
1630679487002,46768,341056,331387
1630679487012,47070,341479,332218
1630679487022,47523,341923,333286
1630679487032,47620,341814,333311
1630679487042,47363,341160,332674
1630679487052,46915,340275,331706
1630679487062,46586,339633,331047
1630679487072,46604,339702,331187
1630679487082,46741,339681,331384
1630679487092,46882,339793,331710
1630679487102,47092,339988,332109
1630679487112,47275,340163,332433
1630679487122,47255,340011,332263
1630679487132,47157,339823,332064
1630679487142,47203,339971,332088
1630679487152,47212,340059,332054
1630679487162,47265,340168,332001
1630679487172,47233,340196,331917
1630679487182,47291,340346,332003
1630679487192,47397,340595,332163
1630679487202,47522,340891,332344
1630679487212,47684,341197,332669
1630679487222,47799,341484,332957
1630679487232,47946,341797,333303
1630679487242,48090,342110,333738
1630679487252,48247,342404,334164
1630679487262,48389,342696,334589
1630679487272,48510,342921,334922
1630679487282,48593,343132,335122
1630679487292,48661,343232,335263
1630679487302,48692,343284,335345
1630679487312,48729,343401,335535
1630679487322,48793,343604,335675
1630679487332,48869,343664,335830
1630679487342,48934,343716,335883
1630679487352,48941,343698,335896
1630679487362,48909,343684,335873
1630679487372,48906,343683,336002
1630679487382,49000,343760,336239
1630679487392,49252,343983,336966
1630679487402,49686,344470,338265
1630679487412,50146,344873,339224
1630679487422,50303,344917,339645
1630679487432,50305,344548,339367
1630679487442,50033,343947,338720
1630679487452,49915,343617,338657
1630679487462,49932,343504,338757
1630679487472,50007,343505,338859
1630679487482,50154,343760,339361
1630679487492,50380,344044,339854
1630679487502,50576,344268,340197
1630679487512,50633,344203,340252
1630679487522,50555,343875,340159
1630679487532,50478,343757,339914
1630679487542,50390,343719,339701
1630679487552,50310,343681,339403
1630679487562,50213,343631,339125
1630679487572,50132,343580,338829
1630679487582,50053,343471,338537
1630679487592,49953,343468,338228
1630679487602,49893,343441,338084
1630679487612,49880,343592,337993
1630679487622,49895,343711,337977
1630679487632,49970,343893,338063
1630679487642,50075,344083,338291
1630679487652,50198,344346,338603
1630679487662,50300,344432,338834
1630679487672,50353,344625,338967
1630679487682,50344,344571,339036
1630679487692,50332,344651,339059
1630679487702,50336,344762,339134
1630679487712,50355,344970,339238
1630679487722,50398,345092,339347
1630679487732,50415,345216,339401
1630679487742,50412,345283,339332
1630679487752,50400,345346,339373
1630679487762,50442,345501,339459
1630679487772,50512,345604,339738
1630679487782,50634,345721,339998
1630679487792,50743,345916,340555
1630679487802,51010,346250,341348
1630679487812,51438,346780,342427
1630679487822,51882,347230,343460
1630679487832,51950,347041,343420
1630679487842,51602,346257,342563
1630679487852,51148,345395,341600
1630679487862,50882,344934,341074
1630679487872,50874,344938,341108
1630679487882,51125,345138,341476
1630679487892,51451,345433,342369
1630679487902,51757,345595,343023
1630679487912,51822,345486,343181
1630679487922,51786,345253,343065
1630679487932,51834,345363,343073
1630679487942,51854,345545,343024
1630679487952,51865,345641,342949
1630679487962,51906,345783,342942
1630679487972,51961,345957,342973
1630679487982,52044,346149,343053
1630679487992,52122,346302,343147
1630679488002,52162,346449,343217
1630679488012,52157,346482,343182
1630679488022,52143,346528,343171
1630679488032,52123,346594,343097
1630679488042,52087,346601,343050
1630679488052,52032,346692,342929
1630679488062,51949,346691,342798
1630679488072,51847,346716,342656
1630679488082,51744,346672,342372
1630679488092,51665,346608,342192
1630679488102,51607,346649,342112
1630679488112,51606,346741,342179
1630679488122,51670,346884,342349
1630679488132,51786,347113,342565
1630679488142,51876,347246,342829
1630679488152,51933,347247,342926
1630679488162,51880,347098,342896
1630679488172,51811,346929,342824
1630679488182,51755,346734,342779
1630679488192,51741,346620,342881
1630679488202,51860,346760,343362
1630679488212,52246,347143,344273
1630679488222,52671,347517,345344
1630679488232,52749,347431,345350
1630679488242,52442,346665,344618
1630679488252,51888,345734,343425
1630679488262,51403,344899,342393
1630679488272,51136,344614,341940
1630679488282,51138,344602,341904
1630679488292,51416,344994,342556
1630679488302,51730,345315,343170
1630679488312,51880,345488,343462
1630679488322,51777,345182,343205
1630679488332,51585,344810,342839
1630679488342,51473,344746,342515
1630679488352,51436,344749,342373
1630679488362,51411,344898,342116
1630679488372,51299,344879,341675
1630679488382,51177,344827,341396
1630679488392,51103,344820,341091
1630679488402,51079,344958,341003
1630679488412,51062,345009,340919
1630679488422,51074,345062,340861
1630679488432,51078,345226,340845
1630679488442,51102,345418,340887
1630679488452,51154,345533,340979
1630679488462,51172,345659,340963
1630679488472,51169,345760,340982
1630679488482,51128,345790,340905
1630679488492,51040,345777,340712
1630679488502,50936,345803,340473
1630679488512,50842,345772,340408
1630679488522,50818,345915,340459
1630679488532,50859,346064,340700
1630679488542,50922,346178,340971
1630679488552,50929,346238,341103
1630679488562,50919,346197,341222
1630679488572,50893,346172,341230
1630679488582,50898,346169,341386
1630679488592,50954,346325,341677
1630679488602,51219,346618,342354
1630679488612,51686,347194,343568
1630679488622,52220,347863,344762
1630679488632,52521,348050,345324
1630679488642,52443,347680,345032
1630679488652,52129,347190,344456
1630679488662,51884,346890,343975
1630679488672,51851,346805,343810
1630679488682,51971,346894,344054
1630679488692,52189,347084,344492
1630679488702,52428,347155,344994
1630679488712,52580,347268,345229
1630679488722,52531,347179,345070
1630679488732,52506,347233,344754
1630679488742,52502,347383,344539
1630679488752,52580,347536,344513
1630679488762,52634,347578,344484
1630679488772,52719,347732,344607
1630679488782,52836,347865,344777
1630679488792,52975,348124,344958
1630679488802,53069,348284,345080
1630679488812,53161,348480,345166
1630679488822,53267,348702,345347
1630679488832,53364,348886,345449
1630679488842,53462,349141,345666
1630679488852,53581,349338,345775
1630679488862,53655,349532,345966
1630679488872,53683,349671,346038
1630679488882,53679,349732,346047
1630679488892,53648,349820,346041
1630679488902,53643,349942,346165
1630679488912,53673,350003,346410
1630679488922,53753,350148,346754
1630679488932,53867,350359,347181
1630679488942,53972,350468,347606
1630679488952,53982,350511,347788
1630679488962,53909,350500,347703
1630679488972,53809,350308,347632
1630679488982,53738,350122,347507
1630679488992,53752,350106,347744
1630679489002,53954,350282,348283
1630679489012,54333,350674,349234
1630679489022,54982,351376,350841
1630679489032,55758,352131,352670
1630679489042,56291,352593,353849
1630679489052,56257,352254,353678
1630679489062,55918,351495,352939
1630679489072,55527,350757,352125
1630679489082,55430,350547,351864
1630679489092,55623,350829,352337
1630679489102,56118,351448,353327
1630679489112,56734,352178,354528
1630679489122,57230,352602,355372
1630679489132,57336,352584,355678
1630679489142,57329,352395,355776
1630679489152,57362,352487,355852
1630679489162,57448,352619,355982
1630679489172,57556,352759,356084
1630679489182,57610,352881,356129
1630679489192,57611,353013,355939
1630679489202,57591,353107,355746
1630679489212,57503,353054,355437
1630679489222,57373,353040,355059
1630679489232,57211,353028,354630
1630679489242,57081,352959,354217
1630679489252,56985,353008,353969
1630679489262,56940,353167,353812
1630679489272,56934,353334,353785
1630679489282,56963,353405,353861
1630679489292,56898,353299,353854
1630679489302,56706,353050,353580
1630679489312,56445,352785,353245
1630679489322,56219,352481,353023
1630679489332,56087,352467,352979
1630679489342,56082,352522,353177
1630679489352,56062,352638,353252
1630679489362,56012,352636,353201
1630679489372,55940,352503,353110
1630679489382,55875,352459,352982
1630679489392,55860,352470,353044
1630679489402,55954,352618,353270
1630679489412,56155,352930,353810
1630679489422,56635,353608,354985
1630679489432,57481,354725,356941
1630679489442,58332,355726,358722
1630679489452,58590,355778,359090
1630679489462,58223,355238,358261
1630679489472,57712,354623,357349
1630679489482,57520,354427,356926
1630679489492,57683,354682,357082
1630679489502,58157,355264,358004
1630679489512,58913,356140,359583
1630679489522,59565,356687,360832
1630679489532,59696,356709,360953
1630679489542,59530,356546,360494
1630679489552,59490,356538,360215
1630679489562,59429,356666,359895
1630679489572,59423,356759,359775
1630679489582,59441,356821,359567
1630679489592,59501,356889,359634
1630679489602,59528,357005,359501
1630679489612,59475,356989,359109
1630679489622,59385,356942,358803
1630679489632,59328,356968,358533
1630679489642,59369,357108,358578
1630679489652,59439,357409,358708
1630679489662,59556,357579,358988
1630679489672,59610,357713,359121
1630679489682,59517,357494,359038
1630679489692,59310,357311,358833
1630679489702,59004,356963,358332
1630679489712,58623,356597,357770
1630679489722,58312,356344,357349
1630679489732,58128,356322,357277
1630679489742,58095,356392,357411
1630679489752,58167,356529,357678
1630679489762,58214,356668,357855
1630679489772,58184,356628,357824
1630679489782,58087,356501,357734
1630679489792,57945,356287,357520
1630679489802,57834,356043,357346
1630679489812,57804,355939,357471
1630679489822,58010,356066,358043
1630679489832,58604,356728,359418
1630679489842,59310,357362,360739
1630679489852,59584,357468,361031
1630679489862,59382,357058,360454
1630679489872,58880,356249,359385
1630679489882,58420,355478,358509
1630679489892,58162,355106,358003
1630679489902,58232,355187,357985
1630679489912,58644,355662,358646
1630679489922,59193,356228,359583
1630679489932,59484,356514,359947
1630679489942,59242,356129,359373
1630679489952,59052,355882,359069
1630679489962,59060,355995,358968
1630679489972,59115,356173,358905
1630679489982,59076,356216,358634
1630679489992,59071,356304,358539
1630679490002,59070,356373,358474
1630679490012,59060,356427,358386
1630679490022,59013,356511,358200
1630679490032,58941,356480,357996
1630679490042,58949,356644,357898
1630679490052,58926,356678,357916
1630679490062,58936,356767,357928
1630679490072,58888,356808,357932
1630679490082,58835,356864,357998
1630679490092,58791,356854,358089
1630679490102,58737,356899,358242
1630679490112,58675,356941,358314
1630679490122,58584,357001,358350
1630679490132,58501,357027,358374
1630679490142,58429,357042,358354
1630679490152,58391,357107,358418
1630679490162,58426,357250,358575
1630679490172,58500,357354,358751
1630679490182,58581,357506,358849
1630679490192,58653,357588,358952
1630679490202,58779,357727,359156
1630679490212,59012,358030,359639
1630679490222,59489,358693,360676
1630679490232,60357,359772,362549
1630679490242,61484,361232,364759
1630679490252,61943,361552,365402
1630679490262,61602,360953,364550
1630679490272,61044,360212,363524
1630679490282,60725,359888,362989
1630679490292,60837,360029,363085
1630679490302,61266,360592,363792
1630679490312,61878,361165,364881
1630679490322,62248,361368,365447
1630679490332,62139,361162,365200
1630679490342,61953,360846,364756
1630679490352,61834,360935,364494
1630679490362,61848,361078,364239
1630679490372,61925,361177,364302
1630679490382,62003,361305,364221
1630679490392,62063,361360,364199
1630679490402,62101,361396,364102
1630679490412,62099,361465,363908
1630679490422,62059,361509,363600
1630679490432,61987,361464,363413
1630679490442,61923,361386,363349
1630679490452,61826,361421,363227
1630679490462,61702,361264,363102
1630679490472,61562,361191,362973
1630679490482,61387,361107,362828
1630679490492,61197,360892,362664
1630679490502,60933,360764,362302
1630679490512,60664,360457,362004
1630679490522,60405,360314,361658
1630679490532,60234,360219,361545
1630679490542,60254,360360,361747
1630679490552,60410,360709,362143
1630679490562,60591,360941,362546
1630679490572,60692,361099,362709
1630679490582,60691,361057,362706
1630679490592,60699,361063,362664
1630679490602,60792,361046,362920
1630679490612,61114,361433,363609
1630679490622,61789,362181,364920
1630679490632,62572,362926,366402
1630679490642,62969,363100,366836
1630679490652,62655,362556,365939
1630679490662,62231,361794,364957
1630679490672,61899,361203,364160
1630679490682,61687,360922,363594
1630679490692,61770,361070,363658
1630679490702,62209,361710,364434
1630679490712,62769,362434,365299
1630679490722,62962,362685,365480
1630679490732,62794,362414,365179
1630679490742,62604,362042,364844
1630679490752,62489,361974,364557
1630679490762,62419,361915,364263
1630679490772,62399,361995,364119
1630679490782,62375,362054,363949
1630679490792,62341,362065,363754
1630679490802,62309,362043,363526
1630679490812,62260,362089,363338
1630679490822,62166,362031,363000
1630679490832,62049,362094,362724
1630679490842,62004,362231,362505
1630679490852,61980,362373,362515
1630679490862,61962,362636,362473
1630679490872,61947,362694,362419
1630679490882,61856,362710,362297
1630679490892,61788,362766,362223
1630679490902,61723,362820,362179
1630679490912,61679,362882,362235
1630679490922,61639,363085,362333
1630679490932,61630,363212,362460
1630679490942,61608,363428,362571
1630679490952,61610,363569,362688
1630679490962,61593,363704,362679
1630679490972,61570,363851,362597
1630679490982,61510,363985,362505
1630679490992,61463,364095,362454
1630679491002,61476,364228,362494
1630679491012,61494,364394,362562
1630679491022,61641,364674,362843
1630679491032,62067,365439,363671
1630679491042,62717,366360,364743
1630679491052,62846,366522,364635
1630679491062,62252,365582,363491
1630679491072,61531,364552,362286
1630679491082,61081,364005,361552
1630679491092,61020,364004,361349
1630679491102,61216,364302,361502
1630679491112,61535,364824,362008
1630679491122,61870,365254,362335
1630679491132,61831,365184,362101
1630679491142,61652,364982,361775
1630679491152,61670,364988,361733
1630679491162,61737,365231,361735
1630679491172,61860,365476,361905
1630679491182,62070,365852,362232
1630679491192,62366,366205,362647
1630679491202,62647,366593,363141
1630679491212,62927,367042,363563
1630679491222,63179,367463,364034
1630679491232,63396,367851,364416
1630679491242,63570,368132,364754
1630679491252,63757,368519,365283
1630679491262,63818,368638,365121
1630679491272,63921,368931,365504
1630679491282,64088,369239,365827
1630679491292,64126,369400,366060
1630679491302,64044,369387,366054
1630679491312,63860,369307,365942
1630679491322,63703,369212,365796
1630679491332,63646,369353,365923
1630679491342,63719,369563,366271
1630679491352,63885,369774,366749
1630679491362,64050,369896,367186
1630679491372,64101,369908,367418
1630679491382,64024,369779,367406
1630679491392,63901,369544,367344
1630679491402,63768,369255,367219
1630679491412,63718,368985,367286
1630679491422,63805,368990,367499
1630679491432,64178,369233,368350
1630679491442,64904,369860,369694
1630679491452,65415,370152,370471
1630679491462,65202,369403,369833
1630679491472,64628,368319,368751
1630679491482,63986,367071,367620
1630679491492,63521,366236,366890
1630679491502,63501,366075,366945
1630679491512,63431,365833,366509
1630679491522,63573,365932,366809
1630679491532,63387,365563,366182
1630679491542,63051,365009,365656
1630679491552,62913,364815,365492
1630679491562,62920,364842,365469
1630679491572,62977,364962,365469
1630679491582,63116,365189,365741
1630679491592,63218,365367,365910
1630679491602,63317,365521,366122
1630679491612,63381,365599,366266
1630679491622,63417,365651,366381
1630679491632,63398,365799,366368
1630679491642,63372,365794,366260
1630679491652,63324,365926,366173
1630679491662,63266,365974,365977
1630679491672,63184,366025,365812
1630679491682,63094,366031,365700
1630679491692,62992,366033,365562
1630679491702,62922,366042,365503
1630679491712,62892,366120,365575
1630679491722,62870,366170,365620
1630679491732,62849,366307,365713
1630679491742,62797,366391,365809
1630679491752,62775,366501,365856
1630679491762,62752,366607,365908
1630679491772,62756,366746,365976
1630679491782,62778,366896,366075
1630679491792,62810,367012,366167
1630679491802,62920,367250,366399
1630679491812,63087,367473,366754
1630679491822,63431,367933,367444
1630679491832,64106,368868,368758
1630679491842,65073,369983,370572
1630679491852,65814,370693,371653
1630679491862,65802,370435,371263
1630679491872,65317,369758,370341
1630679491882,64850,369192,369576
1630679491892,64716,369048,369264
1630679491902,64895,369318,369475
1630679491912,65338,369805,370101
1630679491922,65817,370331,370726
1630679491932,65972,370451,370715
1630679491942,65845,370346,370473
1630679491952,65698,370285,370124
1630679491962,65606,370262,369568
1630679491972,65495,370111,369188
1630679491982,65413,370072,368808
1630679491992,65335,369976,368557
1630679492002,65289,369879,368313
1630679492012,65257,369815,368081
1630679492022,65161,369766,367771
1630679492032,65049,369722,367523
1630679492042,65039,369764,367422
1630679492052,65009,369836,367325
1630679492062,65000,369960,367419
1630679492072,64960,370079,367351
1630679492082,64884,370160,367314
1630679492092,64794,370230,367241
1630679492102,64703,370283,367242
1630679492112,64560,370411,367120
1630679492122,64429,370415,367076
1630679492132,64348,370589,367174
1630679492142,64398,370861,367500
1630679492152,64547,371254,368005
1630679492162,64702,371615,368382
1630679492172,64801,371844,368584
1630679492182,64789,371834,368596
1630679492192,64726,371875,368520
1630679492202,64734,371834,368538
1630679492212,64874,371889,368834
1630679492222,65218,372244,369516
1630679492232,65910,372951,370696
1630679492242,66714,373655,371932
1630679492252,67016,373700,372013
1630679492262,66696,372855,371108
1630679492272,66102,371781,369876
1630679492282,65671,370863,369211
1630679492292,65347,370290,368456
1630679492302,65408,370209,368490
1630679492312,65887,370680,368983
1630679492322,66290,371143,369593
1630679492332,66247,370943,369369
1630679492342,65924,370400,369086
1630679492352,65727,369941,368854
1630679492362,65657,369903,368688
1630679492372,65592,369782,368424
1630679492382,65553,369819,368309
1630679492392,65523,369835,368207
1630679492402,65444,369700,368033
1630679492412,65377,369631,367876
1630679492422,65268,369605,367644
1630679492432,65141,369433,367378
1630679492442,64989,369402,367176
1630679492452,64842,369315,366887
1630679492462,64731,369359,366601
1630679492472,64651,369385,366458
1630679492482,64630,369450,366484
1630679492492,64633,369573,366525
1630679492502,64645,369759,366573
1630679492512,64603,369820,366616
1630679492522,64539,369882,366701
1630679492532,64470,369966,366786
1630679492542,64429,370060,366873
1630679492552,64444,370289,367070
1630679492562,64487,370421,367215
1630679492572,64516,370562,367346
1630679492582,64541,370692,367395
1630679492592,64567,370824,367485
1630679492602,64670,370930,367600
1630679492612,64768,371057,367762
1630679492622,64967,371314,368190
1630679492632,65437,371866,369082
1630679492642,66111,372631,370270
1630679492652,66576,373055,370837
1630679492662,66541,372810,370517
1630679492672,66228,372526,370020
1630679492682,66018,372331,369698
1630679492692,66018,372318,369790
1630679492702,66163,372467,369932
1630679492712,66472,372854,370401
1630679492722,66895,373366,371099
1630679492732,67073,373556,371234
1630679492742,66918,373428,370806
1630679492752,66693,373341,370362
1630679492762,66493,373261,369823
1630679492772,66339,373187,369369
1630679492782,66200,372900,368930
1630679492792,66085,372747,368498
1630679492802,66058,372618,368297
1630679492812,66042,372435,368122
1630679492822,66010,372337,367974
1630679492832,65971,372406,367881
1630679492842,65844,372203,367582
1630679492852,65831,372210,367520
1630679492862,65758,372220,367288
1630679492872,65699,372171,367164
1630679492882,65614,372183,366956
1630679492892,65481,372097,366784
1630679492902,65351,372098,366581
1630679492912,65221,372078,366378
1630679492922,65106,372075,366318
1630679492932,65047,372222,366319
1630679492942,65107,372517,366660
1630679492952,65290,372918,367080
1630679492962,65477,373377,367598
1630679492972,65642,373795,367966
1630679492982,65723,374052,368219
1630679492992,65719,374196,368280
1630679493002,65658,374200,368249
1630679493012,65654,374306,368356
1630679493022,65715,374328,368512
1630679493032,65916,374521,369032
1630679493042,66446,374945,370108
1630679493052,67278,375654,371651
1630679493062,67833,375873,372382
1630679493072,67579,375224,371736
1630679493082,67107,374233,370665
1630679493092,66631,373414,369678
1630679493102,66274,372873,369026
1630679493112,66224,372621,368886
1630679493122,66460,372754,369173
1630679493132,66625,372777,369200
1630679493142,66554,372526,368803
1630679493152,66184,371875,368054
1630679493162,65807,371299,367457
1630679493172,65613,371115,367026
1630679493182,65542,371085,366814
1630679493192,65516,371051,366641
1630679493202,65436,370977,366364
1630679493212,65358,370949,366165
1630679493222,65314,370916,366006
1630679493232,65270,371020,365898
1630679493242,65210,371020,365806
1630679493252,65130,371142,365682
1630679493262,65109,371348,365635
1630679493272,65058,371484,365595
1630679493282,65025,371627,365560
1630679493292,65002,371831,365611
1630679493302,65000,371976,365686
1630679493312,64981,372224,365851
1630679493322,65000,372511,366078
1630679493332,65066,372959,366442
1630679493342,65180,373350,366866
1630679493352,65326,373841,367255
1630679493362,65427,374138,367590
1630679493372,65498,374294,367720
1630679493382,65457,374242,367670
1630679493392,65387,374202,367379
1630679493402,65318,373951,367189
1630679493412,65296,373901,367103
1630679493422,65344,373750,367148
1630679493432,65477,373750,367365
1630679493442,65850,374106,368072
1630679493452,66605,374987,369493
1630679493462,67297,375635,370578
1630679493472,67205,375350,370243
1630679493482,66815,374845,369545
1630679493492,66396,374481,368785
1630679493502,66118,374212,368252
1630679493512,66233,374304,368360
1630679493522,66615,374651,368843
1630679493532,67042,375004,369404
1630679493542,67119,374985,369306
1630679493552,66915,374658,368780
1630679493562,66678,374267,368288
1630679493572,66565,374292,367923
1630679493582,66532,374254,367751
1630679493592,66349,373864,367030
1630679493602,66363,373767,367031
1630679493612,66480,373864,367062
1630679493622,66446,373880,366927
1630679493632,66455,373939,366898
1630679493642,66400,373869,366647
1630679493652,66408,373898,366681
1630679493662,66435,374086,366692
1630679493672,66474,374289,366819
1630679493682,66506,374479,367008
1630679493692,66528,374705,367210
1630679493702,66493,374897,367273
1630679493712,66384,374935,367198
1630679493722,66184,374923,367023
1630679493732,65999,374970,366930
1630679493742,65864,375121,367001
1630679493752,65921,375381,367266
1630679493762,66152,375943,367883
1630679493772,66408,376448,368483
1630679493782,66619,376826,368924
1630679493792,66718,376953,369168
1630679493802,66701,376844,369211
1630679493812,66627,376684,369146
1630679493822,66573,376488,369134
1630679493832,66634,376457,369258
1630679493842,66890,376694,369854
1630679493852,67469,377270,370895
1630679493862,68086,377864,371925
1630679493872,68347,377836,372121
1630679493882,68129,377233,371527
1630679493892,67791,376453,370739
1630679493902,67468,375762,370083
1630679493912,67168,375188,369431
1630679493922,67135,374897,369423
1630679493932,67325,374928,369515
1630679493942,67272,374726,369035
1630679493952,66954,374047,368257
1630679493962,66516,373492,367448
1630679493972,66378,373274,367256
1630679493982,66335,373300,367082
1630679493992,66401,373390,367071
1630679494002,66399,373404,366856
1630679494012,66380,373457,366723
1630679494022,66447,373584,366831
1630679494032,66478,373671,366760
1630679494042,66477,373869,366796
1630679494052,66472,374061,366728
1630679494062,66448,374243,366749
1630679494072,66461,374394,366728
1630679494082,66499,374639,366852
1630679494092,66658,375088,367213
1630679494102,66822,375508,367604
1630679494112,66962,375980,368078
1630679494122,67058,376428,368470
1630679494132,67103,376687,368787
1630679494142,67104,376942,369088
1630679494152,67153,377196,369358
1630679494162,67186,377298,369553
1630679494172,67205,377355,369686
1630679494182,67205,377288,369685
1630679494192,67186,377221,369651
1630679494202,67139,377104,369520
1630679494212,67045,376829,369282
1630679494222,66968,376789,369185
1630679494232,67002,376771,369213
1630679494242,67117,376861,369454
1630679494252,67531,377368,370244
1630679494262,68231,378219,371554
1630679494272,68884,378813,372477
1630679494282,68964,378752,372344
1630679494292,68634,378289,371563
1630679494302,68166,377908,370747
1630679494312,67861,377669,370176
1630679494322,67892,377704,370181
1630679494332,68170,377927,370573
1630679494342,68477,378087,370939
1630679494352,68470,378037,370705
1630679494362,68220,377751,370079
1630679494372,67855,377397,369246
1630679494382,67583,377024,368652
1630679494392,67413,376791,368168
1630679494402,67305,376588,367926
1630679494412,67285,376412,367615
1630679494422,67247,376268,367460
1630679494432,67193,376181,367235
1630679494442,67141,376072,367124
1630679494452,67018,375855,366756
1630679494462,67048,375900,366833
1630679494472,67117,375965,366976
1630679494482,67199,376104,367157
1630679494492,67267,376225,367361
1630679494502,67274,376374,367443
1630679494512,67261,376495,367561
1630679494522,67208,376676,367761
1630679494532,67159,376731,367854
1630679494542,67094,376874,368082
1630679494552,67051,377072,368332
1630679494562,67083,377349,368729
1630679494572,67173,377736,369184
1630679494582,67268,378019,369537
1630679494592,67286,378138,369786
1630679494602,67269,378194,369819
1630679494612,67170,378105,369776
1630679494622,67090,377985,369741
1630679494632,67066,377760,369804
1630679494642,67191,377813,370136
1630679494652,67659,378258,371054
1630679494662,68257,378609,372018
1630679494672,68338,378267,371790
1630679494682,67917,377375,370826
1630679494692,67482,376403,369760
1630679494702,67095,375608,368930
1630679494712,66692,374814,368121
1630679494722,66673,374571,368052
1630679494732,66795,374416,367976
1630679494742,66744,374086,367506
1630679494752,66529,373740,367147
1630679494762,66356,373517,366936
1630679494772,66303,373416,366829
1630679494782,66294,373475,366747
1630679494792,66254,373362,366453
1630679494802,66298,373510,366520
1630679494812,66389,373673,366646
1630679494822,66426,373761,366680
1630679494832,66492,373893,366803
1630679494842,66497,374053,366812
1630679494852,66453,374168,366713
1630679494862,66386,374281,366518
1630679494872,66338,374367,366407
1630679494882,66342,374672,366370
1630679494892,66384,374766,366453
1630679494902,66472,375026,366596
1630679494912,66575,375311,366869
1630679494922,66670,375602,367127
1630679494932,66731,375941,367499
1630679494942,66848,376417,367894
1630679494952,66948,376863,368364
1630679494962,67034,377187,368674
1630679494972,67093,377422,368936
1630679494982,67140,377669,369121
1630679494992,67149,377731,369215
1630679495002,67148,377704,369137
1630679495012,67086,377583,368978
1630679495022,67046,377494,368829
1630679495032,67029,377453,368782
1630679495042,67134,377479,368909
1630679495052,67459,377829,369571
1630679495062,68042,378566,370546
1630679495072,68493,378926,371175
1630679495082,68329,378406,370749
1630679495092,67912,378017,369927
1630679495102,67620,377740,369320
1630679495112,67490,377654,368876
1630679495122,67580,377671,368775
1630679495132,67872,377873,369070
1630679495142,68129,377938,369400
1630679495152,68079,377678,369194
1630679495162,67884,377453,368765
1630679495172,67680,377106,368300
1630679495182,67468,376977,367778
1630679495192,67222,376716,367122
1630679495202,66960,376241,366393
1630679495212,66863,376164,366096
1630679495222,66776,376028,365859
1630679495232,66739,376082,365645
1630679495242,66719,376139,365460
1630679495252,66681,376075,365379
1630679495262,66807,376205,365504
1630679495272,66934,376458,365729
1630679495282,67033,376613,366013
1630679495292,67118,376807,366229
1630679495302,67135,376771,366341
1630679495312,67078,376884,366431
1630679495322,67000,376940,366465
1630679495332,66897,376973,366535
1630679495342,66806,377100,366642
1630679495352,66809,377371,366866
1630679495362,66910,377931,367317
1630679495372,67124,378366,367861
1630679495382,67290,378807,368411
1630679495392,67367,379039,368638
1630679495402,67351,379033,368693
1630679495412,67297,379036,368633
1630679495422,67241,378968,368525
1630679495432,67228,378905,368554
1630679495442,67302,378990,368687
1630679495452,67492,379169,369066
1630679495462,67932,379579,369864
1630679495472,68483,380207,370693
1630679495482,68800,380311,371078
1630679495492,68804,379962,370919
1630679495502,68704,379462,370597
1630679495512,68642,378979,370340
1630679495522,68635,378684,370210
1630679495532,68727,378608,370084
1630679495542,68974,378808,370320
1630679495552,69158,378698,370246
1630679495562,69122,378417,370049
1630679495572,68998,378119,369979
1630679495582,68928,377957,369928
1630679495592,68879,377820,369920
1630679495602,68865,377867,369842
1630679495612,68824,377695,369743
1630679495622,68798,377651,369675
1630679495632,68739,377553,369483
1630679495642,68644,377383,369256
1630679495652,68611,377347,369173
1630679495662,68570,377390,369079
1630679495672,68519,377473,368997
1630679495682,68446,377538,368831
1630679495692,68392,377571,368770
1630679495702,68323,377655,368673
1630679495712,68195,377607,368453
1630679495722,68099,377557,368430
1630679495732,68017,377709,368394
1630679495742,67935,377909,368479
1630679495752,67925,378107,368702
1630679495762,67915,378325,368804
1630679495772,67946,378541,369023
1630679495782,67983,378741,369232
1630679495792,68011,378902,369332
1630679495802,68006,379015,369385
1630679495812,68006,379092,369440
1630679495822,67988,379204,369473
1630679495832,68017,379365,369625
1630679495842,68174,379647,369964
1630679495852,68486,380108,370525
1630679495862,69019,380808,371401
1630679495872,69397,381183,371887
1630679495882,69151,380735,371416
1630679495892,68564,379932,370442
1630679495902,68080,379478,369625
1630679495912,67924,379335,369302
1630679495922,68116,379412,369398
1630679495932,68494,379694,369809
1630679495942,68871,379955,370269
1630679495952,68954,379962,370176
1630679495962,68770,379618,369792
1630679495972,68620,379367,369473
1630679495982,68534,379221,369296
1630679495992,68505,379132,369130
1630679496002,68492,378991,368976
1630679496012,68459,378749,368846
1630679496022,68469,378623,368778
1630679496032,68482,378569,368755
1630679496042,68458,378538,368646
1630679496052,68528,378692,368947
1630679496062,68367,378283,368303
1630679496072,68338,378301,368464
1630679496082,68397,378337,368431
1630679496092,68408,378398,368437
1630679496102,68470,378559,368669
1630679496112,68493,378632,368676
1630679496122,68458,378619,368654
1630679496132,68430,378735,368691
1630679496142,68431,378931,368819
1630679496152,68479,379275,369071
1630679496162,68606,379577,369387
1630679496172,68759,380054,369861
1630679496182,68963,380530,370338
1630679496192,69111,380927,370676
1630679496202,69213,381142,370920
1630679496212,69236,381265,370949
1630679496222,69212,381299,370966
1630679496232,69216,381282,371052
1630679496242,69260,381342,371202
1630679496252,69363,381375,371376
1630679496262,69645,381694,371850
1630679496272,69993,381904,372337
1630679496282,70024,381611,372226
1630679496292,69655,380885,371506
1630679496302,69070,379995,370410
1630679496312,68451,379139,369423
1630679496322,68081,378813,368770
1630679496332,67910,378627,368321
1630679496342,68040,378707,368456
1630679496352,68098,378570,368325
1630679496362,67979,378271,367979
1630679496372,67763,377884,367473
1630679496382,67466,377423,366879
1630679496392,67285,377236,366565
1630679496402,67239,377213,366471
1630679496412,67213,377166,366323
1630679496422,67249,377253,366296
1630679496432,67323,377318,366363
1630679496442,67421,377460,366465
1630679496452,67515,377660,366648
1630679496462,67631,377882,366802
1630679496472,67717,378123,366915
1630679496482,67781,378307,367039
1630679496492,67855,378553,367141
1630679496502,67892,378879,367281
1630679496512,68010,379150,367520
1630679496522,68139,379502,367828
1630679496532,68290,379965,368222
1630679496542,68443,380414,368669
1630679496552,68551,380837,369151
1630679496562,68648,381183,369443
1630679496572,68758,381496,369822
1630679496582,68878,381794,370172
1630679496592,68976,381939,370314
1630679496602,68991,381922,370280
1630679496612,68933,381728,370129
1630679496622,68834,381525,369877
1630679496632,68728,381342,369663
1630679496642,68715,381179,369613
1630679496652,68830,381206,369692
1630679496662,69110,381499,370042
1630679496672,69517,382008,370619
1630679496682,69668,382109,370784
1630679496692,69413,381703,370197
1630679496702,69035,381384,369431
1630679496712,68723,381128,368839
1630679496722,68584,380931,368543
1630679496732,68718,380906,368574
1630679496742,68966,381019,368891
1630679496752,69175,381067,369148
1630679496762,69151,380855,369030
1630679496772,68925,380493,368578
1630679496782,68739,380240,368220
1630679496792,68604,380081,367893
1630679496802,68536,380001,367604
1630679496812,68487,379819,367427
1630679496822,68461,379601,367216
1630679496832,68489,379618,367110
1630679496842,68472,379305,366765
1630679496852,68590,379461,366888
1630679496862,68663,379548,366878
1630679496872,68736,379699,366969
1630679496882,68828,379889,367064
1630679496892,68931,380062,367166
1630679496902,69010,380082,367199
1630679496912,69106,380274,367338
1630679496922,69206,380526,367500
1630679496932,69275,380716,367703
1630679496942,69311,380915,367831
1630679496952,69360,381256,368026
1630679496962,69476,381603,368400
1630679496972,69672,382143,368930
1630679496982,69901,382597,369525
1630679496992,70141,383168,370115
1630679497002,70291,383444,370552
1630679497012,70352,383608,370857
1630679497022,70295,383746,370998
1630679497032,70274,383705,371186
1630679497042,70331,383798,371392
1630679497052,70496,383909,371736
1630679497062,70838,384147,372266
1630679497072,71207,384241,372827
1630679497082,71299,383889,372833
1630679497092,70932,383174,371983
1630679497102,70454,382212,371080
1630679497112,70044,381422,370157
1630679497122,69731,380828,369487
1630679497132,69660,380555,369278
1630679497142,69833,380602,369365
1630679497152,69914,380454,369302
1630679497162,69827,380085,368920
1630679497172,69599,379586,368327
1630679497182,69232,379083,367743
1630679497192,69117,378930,367597
1630679497202,69110,379012,367515
1630679497212,69150,379124,367500
1630679497222,69113,379051,367272
1630679497232,69131,379052,367196
1630679497242,69204,379250,367283
1630679497252,69278,379438,367361
1630679497262,69339,379634,367512
1630679497272,69419,379883,367665
1630679497282,69496,380114,367789
1630679497292,69540,380425,367898
1630679497302,69582,380652,367932
1630679497312,69638,380938,368102
1630679497322,69721,381214,368296
1630679497332,69866,381764,368606
1630679497342,70027,382343,368998
1630679497352,70211,382892,369468
1630679497362,70355,383387,369941
1630679497372,70442,383662,370255
1630679497382,70464,383884,370514
1630679497392,70492,383998,370651
1630679497402,70486,383946,370649
1630679497412,70425,383749,370477
1630679497422,70332,383620,370235
1630679497432,70279,383406,370010
1630679497442,70268,383288,369934
1630679497452,70277,383239,369871
1630679497462,70430,383410,370110
1630679497472,70779,383751,370630
1630679497482,70948,383830,370781
1630679497492,70817,383661,370410
1630679497502,70530,383328,369804
1630679497512,70281,383079,369200
1630679497522,70060,382874,368775
1630679497532,70022,382684,368591
1630679497542,70088,382586,368547
1630679497552,70152,382606,368558
1630679497562,70131,382390,368396
1630679497572,69928,382138,367923
1630679497582,69733,381829,367499
1630679497592,69586,381700,367108
1630679497602,69477,381497,366780
1630679497612,69380,381291,366454
1630679497622,69320,381116,366137
1630679497632,69329,380982,365932
1630679497642,69477,381102,366064
1630679497652,69486,380945,365699
1630679497662,69519,380993,365650
1630679497672,69749,381297,365961
1630679497682,69821,381259,365878
1630679497692,70022,381537,366226
1630679497702,70238,381876,366518
1630679497712,70382,382088,366663
1630679497722,70541,382333,366963
1630679497732,70643,382434,367143
1630679497742,70700,382649,367377
1630679497752,70766,382907,367659
1630679497762,70850,383122,368112
1630679497772,70979,383526,368637
1630679497782,71130,383819,369173
1630679497792,71286,384187,369670
1630679497802,71435,384485,370061
1630679497812,71563,384750,370366
1630679497822,71586,384926,370570
1630679497832,71566,384934,370644
1630679497842,71546,385064,370877
1630679497852,71612,384989,371194
1630679497862,71793,385184,371598
1630679497872,72170,385516,372229
1630679497882,72633,385911,372913
1630679497892,72814,385865,373007
1630679497902,72563,385308,372429
1630679497912,72263,384614,371678
1630679497922,71940,383928,371001
1630679497932,71589,383270,370316
1630679497942,71533,382928,370212
1630679497952,71648,382919,370188
1630679497962,71600,382731,369812
1630679497972,71448,382416,369334
1630679497982,71250,382073,368867
1630679497992,70987,381821,368626
1630679498002,70965,381695,368556
1630679498012,70954,381769,368448
1630679498022,70946,381818,368286
1630679498032,70974,381881,368239
1630679498042,70980,381843,368069
1630679498052,71021,381895,368120
1630679498062,71078,382077,368148
1630679498072,71149,382283,368202
1630679498082,71211,382586,368305
1630679498092,71270,382748,368400
1630679498102,71313,383076,368496
1630679498112,71400,383339,368712
1630679498122,71518,383615,368915
1630679498132,71617,383873,369244
1630679498142,71704,384186,369482
1630679498152,71798,384485,369804
1630679498162,71804,384727,370107
1630679498172,71817,384962,370282
1630679498182,71810,385100,370438
1630679498192,71772,385200,370560
1630679498202,71708,385082,370592
1630679498212,71649,385060,370516
1630679498222,71596,384959,370316
1630679498232,71565,384834,370201
1630679498242,71546,384807,370129
1630679498252,71620,384857,370138
1630679498262,71855,385177,370438
1630679498272,72154,385470,370771
1630679498282,72241,385530,370708
1630679498292,71963,385237,370048
1630679498302,71551,384942,369294
1630679498312,71214,384682,368638
1630679498322,70967,384327,368133
1630679498332,70866,384013,367861
1630679498342,70949,383858,367856
1630679498352,71046,383886,367985
1630679498362,71021,383725,367794
1630679498372,70836,383477,367382
1630679498382,70573,383118,366856
1630679498392,70359,382849,366360
1630679498402,70232,382620,365999
1630679498412,70192,382413,365760
1630679498422,70186,382206,365470
1630679498432,70172,381965,365241
1630679498442,70224,381848,365093
1630679498452,70303,381754,364985
1630679498462,70301,381577,364810
1630679498472,70446,381716,364935
1630679498482,70527,381595,364921
1630679498492,70562,381634,364956
1630679498502,70577,381596,364952
1630679498512,70553,381552,364903
1630679498522,70488,381507,364839
1630679498532,70413,381362,364710
1630679498542,70359,381432,364737
1630679498552,70286,381519,364786
1630679498562,70239,381657,364899
1630679498572,70226,381850,365105
1630679498582,70329,382179,365418
1630679498592,70473,382531,365829
1630679498602,70601,382816,366159
1630679498612,70647,382901,366328
1630679498622,70577,382958,366373
1630679498632,70476,382985,366295
1630679498642,70418,383005,366332
1630679498652,70484,383176,366555
1630679498662,70768,383413,367019
1630679498672,71239,383711,367598
1630679498682,71469,383730,367794
1630679498692,71407,383298,367791
1630679498702,71109,382666,367260
1630679498712,70877,382133,366824
1630679498722,70761,381798,366526
1630679498732,70662,381444,366239
1630679498742,70662,381457,366041
1630679498752,70721,381241,365860
1630679498762,70675,380915,365755
1630679498772,70495,380689,365686
1630679498782,70457,380546,365981
1630679498792,70566,380689,366231
1630679498802,70646,380812,366283
1630679498812,70685,380781,366134
1630679498822,70686,380732,365976
1630679498832,70763,380743,365959
1630679498842,70813,380710,365991
1630679498852,70884,380785,365998
1630679498862,70874,380748,365903
1630679498872,70780,380780,365744
1630679498882,70721,380726,365609
1630679498892,70584,380757,365372
1630679498902,70513,380815,365286
1630679498912,70392,380836,365099
1630679498922,70293,380817,365094
1630679498932,70222,380920,365025
1630679498942,70132,380955,365106
1630679498952,70079,381108,365119
1630679498962,70059,381297,365211
1630679498972,70072,381419,365323
1630679498982,70118,381625,365477
1630679498992,70136,381736,365553
1630679499002,70117,381720,365566
1630679499012,70052,381722,365443
1630679499022,69976,381682,365370
1630679499032,69926,381731,365326
1630679499042,69913,381780,365293
1630679499052,69950,381767,365404
1630679499062,70066,381971,365584
1630679499072,70249,382172,365766
1630679499082,70203,382041,365685
1630679499092,69996,381765,365583
1630679499102,69703,381530,365373
1630679499112,69568,381377,365114
1630679499122,69461,381261,364697
1630679499132,69431,381033,364400
1630679499142,69458,380818,364173
1630679499152,69491,380657,364054
1630679499162,69522,380532,364121
1630679499172,69525,380426,364192
1630679499182,69513,380348,364245
1630679499192,69469,380238,364226
1630679499202,69422,380193,364220
1630679499212,69389,380086,364173
1630679499222,69376,380005,364106
1630679499232,69474,380221,364217
1630679499242,69483,380323,364245
1630679499252,69493,380304,364102
1630679499262,69535,380383,364076
1630679499272,69543,380284,364030
1630679499282,69515,380278,363957
1630679499292,69467,380179,363836
1630679499302,69400,380077,363769
1630679499312,69337,380099,363763
1630679499322,69260,380127,363717
1630679499332,69172,380192,363628
1630679499342,69116,380304,363694
1630679499352,69027,380193,363447
1630679499362,68903,380113,363385
1630679499372,68961,380174,363394
1630679499382,69007,380337,363538
1630679499392,69067,380599,363705
1630679499402,69135,380814,363893
1630679499412,69173,380998,364108
1630679499422,69193,381153,364227
1630679499432,69196,381267,364329
1630679499442,69211,381225,364468
1630679499452,69224,381300,364558
1630679499462,69360,381470,364764
1630679499472,69535,381608,364951
1630679499482,69464,381479,364866
1630679499492,69297,381112,364790
1630679499502,69061,380463,364464
1630679499512,68917,379899,364175
1630679499522,68812,379573,363874
1630679499532,68758,379310,363664
1630679499542,68782,379304,363764
1630679499552,68781,379243,363843
1630679499562,68661,379036,363803
1630679499572,68598,378941,364035
1630679499582,68473,378711,364024
1630679499592,68361,378627,364001
1630679499602,68318,378533,363975
1630679499612,68371,378575,364198
1630679499622,68493,378788,364359
1630679499632,68559,378948,364583
1630679499642,68658,378905,364600
1630679499652,68757,378958,364728
1630679499662,68893,379156,364857
1630679499672,68923,379131,364875
1630679499682,69070,379303,365034
1630679499692,69110,379359,365024
1630679499702,69188,379427,365078
1630679499712,69208,379536,365079
1630679499722,69242,379641,365059
1630679499732,69267,379616,365038
1630679499742,69258,379638,364987
1630679499752,69288,379709,365045
1630679499762,69339,379828,365119
1630679499772,69384,379922,365301
1630679499782,69502,380095,365484
1630679499792,69611,380317,365703
1630679499802,69692,380508,365889
1630679499812,69714,380588,365928
1630679499822,69734,380637,365924
1630679499832,69738,380805,365936
1630679499842,69774,380878,365949
1630679499852,69838,381085,366168
1630679499862,69960,381431,366441
1630679499872,70202,381713,366871
1630679499882,70440,382074,367173
1630679499892,70354,382044,367089
1630679499902,70058,381519,366896
1630679499912,69778,381009,366661
1630679499922,69510,380721,366392
1630679499932,69279,380417,365945
1630679499942,69160,380064,365513
1630679499952,69071,379697,365071
1630679499962,68977,379288,364806
1630679499972,68899,378885,364623
1630679499982,68820,378614,364572
1630679499992,68771,378402,364536
1630679500002,68677,378365,364402
1630679500012,68645,378270,364415
1630679500022,68664,378229,364437
1630679500032,68722,378290,364368
1630679500042,68805,378236,364441
1630679500052,68902,378417,364531
1630679500062,69003,378421,364573
1630679500072,69137,378519,364669
1630679500082,69265,378615,364784
1630679500092,69363,378822,364913
1630679500102,69440,378858,364974
1630679500112,69499,378942,365003
1630679500122,69553,379078,365090
1630679500132,69439,378922,364686
1630679500142,69469,378945,364836
1630679500152,69459,378883,364620
1630679500162,69464,378920,364575
1630679500172,69443,379008,364557
1630679500182,69475,379118,364553
1630679500192,69523,379222,364580
1630679500202,69613,379324,364604
1630679500212,69658,379468,364668
1630679500222,69720,379513,364790
1630679500232,69751,379677,364961
1630679500242,69756,379820,365061
1630679500252,69739,379829,365138
1630679500262,69745,379923,365219
1630679500272,69786,379970,365365
1630679500282,69934,380143,365587
1630679500292,70075,380189,365803
1630679500302,70058,380127,365791
1630679500312,69943,379764,365772
1630679500322,69826,379395,365621
1630679500332,69697,379096,365432
1630679500342,69591,378875,365274
1630679500352,69515,378526,365014
1630679500362,69546,378266,364871
1630679500372,69482,377909,364585
1630679500382,69498,377685,364666
1630679500392,69456,377570,364846
1630679500402,69482,377637,365119
1630679500412,69536,377650,365247
1630679500422,69608,377720,365357
1630679500432,69675,377699,365326
1630679500442,69765,377817,365422
1630679500452,69831,377831,365367
1630679500462,69787,377555,365181
1630679500472,69886,377719,365261
1630679500482,69926,377833,365267
1630679500492,69999,377994,365341
1630679500502,70038,378108,365293
1630679500512,70042,378195,365237
1630679500522,70039,378369,365200
1630679500532,70019,378500,365161
1630679500542,70013,378718,365168
1630679500552,70031,378956,365240
1630679500562,70069,379181,365380
1630679500572,70133,379478,365582
1630679500582,70244,379780,365773
1630679500592,70360,379937,365999
1630679500602,70404,380027,366106
1630679500612,70418,380031,366199
1630679500622,70383,379933,366075
1630679500632,70306,379834,365946
1630679500642,70221,379677,365797
1630679500652,70134,379509,365661
1630679500662,70084,379391,365493
1630679500672,70084,379296,365399
1630679500682,70111,379233,365429
1630679500692,70283,379295,365624
1630679500702,70484,379408,365810
1630679500712,70529,379399,365877
1630679500722,70452,379322,365962
1630679500732,70226,379166,365722
1630679500742,69950,378870,365203
1630679500752,69742,378513,364601
1630679500762,69612,378048,364016
1630679500772,69555,377578,363472
1630679500782,69576,377143,363233
1630679500792,69557,376875,363172
1630679500802,69510,376620,363185
1630679500812,69460,376535,363185
1630679500822,69411,376417,363051
1630679500832,69420,376252,363051
1630679500842,69502,376127,363069
1630679500852,69668,376273,363212
1630679500862,69701,376207,363180
1630679500872,69720,376152,363016
1630679500882,69824,376269,363068
1630679500892,69590,375640,362639
1630679500902,69886,376115,363007
1630679500912,69916,376141,362891
1630679500922,70066,376470,363260
1630679500932,70286,376830,363588
1630679500942,70375,376946,363697
1630679500952,70450,377195,363866
1630679500962,70424,377211,363919
1630679500972,70396,377328,363969
1630679500982,70341,377346,363987
1630679500992,70341,377514,364107
1630679501002,70389,377663,364187
1630679501012,70454,377678,364316
1630679501022,70520,377703,364330
1630679501032,70545,377640,364310
1630679501042,70506,377467,364222
1630679501052,70438,377291,364075
1630679501062,70352,377091,363888
1630679501072,70303,376909,363709
1630679501082,70281,376852,363591
1630679501092,70309,376701,363489
1630679501102,70382,376575,363384
1630679501112,70474,376535,363337
1630679501122,70453,376487,363371
1630679501132,70476,376492,363673
1630679501142,70430,376410,363723
1630679501152,70416,376370,363705
1630679501162,70390,376288,363474
1630679501172,70338,376093,363270
1630679501182,70402,375940,363113
1630679501192,70470,375808,362972
1630679501202,70519,375812,363100
1630679501212,70501,375862,363280
1630679501222,70556,375906,363530
1630679501232,70493,375790,363401
1630679501242,70475,375687,363337
1630679501252,70457,375568,363259
1630679501262,70536,375675,363312
1630679501272,70575,375621,363247
1630679501282,70633,375459,363054
1630679501292,70593,375116,362778
1630679501302,70649,374973,362693
1630679501312,70671,374783,362551
1630679501322,70686,374848,362438
1630679501332,70668,374737,362390
1630679501342,70638,374783,362286
1630679501352,70680,374932,362347
1630679501362,70682,375102,362413
1630679501372,70665,375310,362499
1630679501382,70690,375513,362668
1630679501392,70732,375852,362791
1630679501402,70779,376135,362988
1630679501412,70848,376387,363203
1630679501422,70923,376675,363315
1630679501432,70977,376835,363387
1630679501442,70970,376911,363378
1630679501452,70922,376821,363297
1630679501462,70851,376759,363147
1630679501472,70799,376745,363005
1630679501482,70797,376655,362879
1630679501492,70800,376626,362834
1630679501502,70867,376646,362836
1630679501512,70993,376770,362914
1630679501522,71003,376964,363031
1630679501532,70857,376974,363029
1630679501542,70556,376591,362522
1630679501552,70122,375877,361671
1630679501562,69654,375123,360604
1630679501572,69402,374290,359952
1630679501582,69286,373620,359536
1630679501592,69237,373065,359227
1630679501602,69267,372657,359118
1630679501612,69349,372244,359223
1630679501622,69449,371994,359299
1630679501632,69578,371543,359324
1630679501642,69790,371010,359294
1630679501652,69980,370452,359205
1630679501662,70182,370137,359103
1630679501672,70262,369854,359040
1630679501682,70265,369674,358843
1630679501692,70254,369251,358542
1630679501702,70275,368983,358358
1630679501712,70392,368940,358229
1630679501722,70265,368327,357880
1630679501732,70439,368398,357727
1630679501742,70451,368261,357632
1630679501752,70650,368629,357731
1630679501762,70772,368995,357910
1630679501772,70900,369475,358233
1630679501782,70985,369919,358509
1630679501792,71073,370286,358866
1630679501802,71144,370562,359023
1630679501812,71197,370674,359057
1630679501822,71272,370699,359079
1630679501832,71347,370674,358983
1630679501842,71391,370596,358886
1630679501852,71405,370444,358813
1630679501862,71381,370277,358661
1630679501872,71318,370098,358505
1630679501882,71270,369809,358234
1630679501892,71248,369559,358069
1630679501902,71248,369287,357808
1630679501912,71285,369088,357625
1630679501922,71340,368866,357578
1630679501932,71381,368827,357520
1630679501942,71274,368731,357830
1630679501952,71292,368450,357718
1630679501962,71217,368011,357459
1630679501972,71184,367846,357270
1630679501982,71210,367704,357221
1630679501992,71254,367487,357103
1630679502002,71301,367090,357016
1630679502012,71359,366701,357161
1630679502022,71450,366550,357527
1630679502032,71575,366243,357767
1630679502042,71651,365970,357848
1630679502052,71670,365502,357594
1630679502062,71659,365019,357124
1630679502072,71655,364650,356775
1630679502082,71607,364224,356370
1630679502092,71524,363536,355760
1630679502102,71429,362556,354829
1630679502112,71330,361432,353935
1630679502122,71240,360606,353099
1630679502132,71211,360097,352620
1630679502142,71164,359865,352333
1630679502152,71172,359807,352217
1630679502162,71209,359906,352176
1630679502172,71238,360074,352316
1630679502182,71270,360321,352469
1630679502192,71322,360633,352683
1630679502202,71372,360960,352915
1630679502212,71458,361303,353138
1630679502222,71526,361616,353336
1630679502232,71572,361880,353434
1630679502242,71598,362014,353454
1630679502252,71586,361919,353431
1630679502262,71557,361885,353343
1630679502272,71525,361724,353226
1630679502282,71499,361591,353088
1630679502292,71455,361473,353018
1630679502302,71469,361474,352939
1630679502312,71483,361507,352955
1630679502322,71551,361892,353209
1630679502332,71581,362511,353755
1630679502342,71535,363177,354411
1630679502352,71344,363302,354647
1630679502362,70892,362659,354091
1630679502372,70331,361735,353484
1630679502382,70031,360631,352674
1630679502392,69939,359310,351865
1630679502402,69909,357665,350975
1630679502412,69977,355827,350226
1630679502422,70062,354614,349998
1630679502432,70154,353410,349804
1630679502442,70224,351468,349092
1630679502452,70227,349437,347961
1630679502462,70140,347068,346221
1630679502472,69977,344814,344403
1630679502482,69831,343402,343037
1630679502492,69713,342762,342311
1630679502502,69578,342036,341536
1630679502512,69399,341295,340473
1630679502522,69117,339610,338897
1630679502532,69013,339040,338010
1630679502542,69019,338980,337831
1630679502552,69129,339492,338003
1630679502562,69094,339267,337254
1630679502572,69045,338763,336457
1630679502582,69009,338244,335681
1630679502592,68972,337782,335066
1630679502602,68979,337460,334732
1630679502612,69055,337315,334438
1630679502622,69115,337230,334374
1630679502632,69246,337239,334385
1630679502642,69364,337287,334477
1630679502652,69407,336800,334154
1630679502662,69393,336132,333617
1630679502672,69331,335357,332999
1630679502682,69284,334659,332532
1630679502692,69217,334203,332237
1630679502702,69201,334029,332064
1630679502712,69166,333980,331967
1630679502722,69108,333631,331664
1630679502732,69078,333519,331781
1630679502742,69027,332709,331534
1630679502752,68491,328962,328704
1630679502762,67457,323090,323753
1630679502772,66849,319992,321129
1630679502782,66377,317449,318799
1630679502792,65162,311073,312930
1630679502802,63986,305319,307710
