timestamp,green,ir,red
1630678967008,55162,340451,310618
1630678967018,55132,340381,310636
1630678967028,55107,340307,310639
1630678967038,55097,340290,310673
1630678967048,55069,340281,310638
1630678967058,55049,340204,310641
1630678967068,55029,340250,310649
1630678967078,54997,340175,310648
1630678967088,54976,340162,310672
1630678967098,54974,340149,310654
1630678967108,54959,340112,310707
1630678967118,54965,340156,310732
1630678967128,54949,340168,310773
1630678967138,54950,340160,310783
1630678967148,54942,340154,310814
1630678967158,54937,340111,310774
1630678967168,54939,340115,310830
1630678967178,54949,340148,310910
1630678967188,54939,340151,310921
1630678967198,54953,340122,310980
1630678967208,54980,340150,311059
1630678967218,55024,340186,311157
1630678967228,55070,340234,311314
1630678967238,55129,340255,311425
1630678967248,55168,340380,311542
1630678967258,55203,340433,311609
1630678967268,55228,340423,311700
1630678967278,55253,340492,311760
1630678967288,55261,340460,311799
1630678967298,55262,340504,311828
1630678967308,55267,340467,311820
1630678967318,55241,340427,311820
1630678967328,55193,340426,311777
1630678967338,55167,340398,311717
1630678967348,55114,340363,311656
1630678967358,55062,340297,311532
1630678967368,55003,340244,311455
1630678967378,54963,340179,311367
1630678967388,54904,340126,311295
1630678967398,54870,340066,311256
1630678967408,54857,340060,311161
1630678967418,54822,339972,311121
1630678967428,54766,339906,311057
1630678967438,54751,339875,310975
1630678967448,54714,339823,310909
1630678967458,54689,339778,310846
1630678967468,54660,339689,310757
1630678967478,54613,339621,310637
1630678967488,54573,339416,310348
1630678967498,54527,339293,310177
1630678967508,54489,339143,309938
1630678967518,54462,338962,309733
1630678967528,54439,338797,309562
1630678967538,54419,338628,309454
1630678967548,54384,338580,309395
1630678967558,54368,338441,309311
1630678967568,54379,338358,309254
1630678967578,54330,338239,309183
1630678967588,54291,338160,309108
1630678967598,54278,338084,309020
1630678967608,54240,338056,308972
1630678967618,54198,337963,309021
1630678967628,54195,337969,309035
1630678967638,54175,337910,309021
1630678967648,54148,337920,309021
1630678967658,54128,337882,308957
1630678967668,54097,337858,308965
1630678967678,54054,337804,308944
1630678967688,54041,337703,308964
1630678967698,54007,337719,308967
1630678967708,53971,337635,308908
1630678967718,53947,337667,308885
1630678967728,53920,337608,308807
1630678967738,53882,337526,308801
1630678967748,53852,337548,308761
1630678967758,53839,337495,308732
1630678967768,53814,337526,308646
1630678967778,53785,337479,308575
1630678967788,53773,337388,308512
1630678967798,53739,337315,308441
1630678967808,53716,337227,308302
1630678967818,53684,337157,308168
1630678967828,53653,337146,308148
1630678967838,53622,337081,308050
1630678967848,53616,336993,307954
1630678967858,53618,336890,307918
1630678967868,53609,336875,307802
1630678967878,53597,336922,307823
1630678967888,53607,336865,307794
1630678967898,53629,336832,307791
1630678967908,53633,336883,307857
1630678967918,53648,336864,307816
1630678967928,53654,336868,307857
1630678967938,53673,336868,307875
1630678967948,53682,336873,307876
1630678967958,53700,336851,307879
1630678967968,53691,336892,307874
1630678967978,53684,336911,307869
1630678967988,53676,336850,307861
1630678967998,53680,336876,307833
1630678968008,53671,336847,307801
1630678968018,53689,336791,307776
1630678968028,53683,336804,307815
1630678968038,53677,336806,307739
1630678968048,53683,336772,307732
1630678968058,53689,336786,307689
1630678968068,53691,336765,307677
1630678968078,53684,336743,307659
1630678968088,53698,336752,307641
1630678968098,53694,336776,307619
1630678968108,53694,336741,307607
1630678968118,53699,336721,307600
1630678968128,53707,336761,307611
1630678968138,53709,336755,307548
1630678968148,53720,336776,307582
1630678968158,53730,336821,307581
1630678968168,53746,336738,307575
1630678968178,53776,336765,307608
1630678968188,53792,336792,307626
1630678968198,53802,336703,307626
1630678968208,53818,336747,307648
1630678968218,53797,336668,307633
1630678968228,53795,336711,307614
1630678968238,53795,336630,307660
1630678968248,53782,336570,307694
1630678968258,53772,336550,307695
1630678968268,53777,336600,307722
1630678968278,53785,336595,307780
1630678968288,53794,336578,307765
1630678968298,53782,336547,307794
1630678968308,53787,336602,307819
1630678968318,53805,336551,307860
1630678968328,53810,336569,307898
1630678968338,53794,336556,307884
1630678968348,53784,336497,307865
1630678968358,53772,336540,307901
1630678968368,53767,336500,307832
1630678968378,53756,336467,307803
1630678968388,53725,336467,307798
1630678968398,53713,336443,307803
1630678968408,53712,336468,307762
1630678968418,53697,336443,307759
1630678968428,53704,336415,307758
1630678968438,53707,336458,307775
1630678968448,53719,336442,307755
1630678968458,53739,336464,307814
1630678968468,53761,336463,307843
1630678968478,53780,336493,307868
1630678968488,53789,336507,307920
1630678968498,53812,336466,307920
1630678968508,53824,336488,307944
1630678968518,53837,336489,307973
1630678968528,53877,336496,308021
1630678968538,53888,336530,308062
1630678968548,53894,336514,308124
1630678968558,53897,336482,308110
1630678968568,53902,336502,308142
1630678968578,53912,336524,308141
1630678968588,53891,336479,308105
1630678968598,53896,336455,308055
1630678968608,53889,336493,308047
1630678968618,53886,336454,307972
1630678968628,53877,336461,307940
1630678968638,53861,336481,307861
1630678968648,53849,336461,307821
1630678968658,53835,336480,307748
1630678968668,53827,336420,307718
1630678968678,53850,336453,307698
1630678968688,53853,336472,307682
1630678968698,53867,336481,307712
1630678968708,53901,336476,307747
1630678968718,53947,336558,307749
1630678968728,53978,336547,307774
1630678968738,53990,336557,307834
1630678968748,54012,336601,307885
1630678968758,54018,336658,307871
1630678968768,54037,336670,307877
1630678968778,54043,336643,307851
1630678968788,54050,336699,307844
1630678968798,54061,336697,307845
1630678968808,54068,336656,307795
1630678968818,54067,336729,307773
1630678968828,54078,336720,307721
1630678968838,54076,336704,307695
1630678968848,54076,336736,307657
1630678968858,54082,336730,307606
1630678968868,54095,336729,307593
1630678968878,54117,336715,307575
1630678968888,54124,336694,307499
1630678968898,54108,336652,307433
1630678968908,54113,336674,307409
1630678968918,54134,336651,307370
1630678968928,54152,336616,307329
1630678968938,54158,336604,307339
1630678968948,54148,336509,307282
1630678968958,54173,336460,307306
1630678968968,54184,336497,307264
1630678968978,54188,336438,307249
1630678968988,54187,336485,307257
1630678968998,54195,336365,307289
1630678969008,54201,336421,307256
1630678969018,54203,336381,307286
1630678969028,54185,336378,307258
1630678969038,54212,336390,307273
1630678969048,54194,336373,307236
1630678969058,54186,336359,307205
1630678969068,54180,336320,307161
1630678969078,54171,336305,307144
1630678969088,54176,336336,307130
1630678969098,54174,336295,307151
1630678969108,54168,336297,307122
1630678969118,54166,336355,307087
1630678969128,54168,336345,307086
1630678969138,54163,336363,307096
1630678969148,54186,336337,307100
1630678969158,54196,336372,307102
1630678969168,54199,336354,307100
1630678969178,54212,336384,307098
1630678969188,54207,336404,307096
1630678969198,54217,336426,307148
1630678969208,54236,336379,307127
1630678969218,54257,336464,307210
1630678969228,54269,336533,307188
1630678969238,54275,336489,307210
1630678969248,54292,336522,307271
1630678969258,54287,336556,307257
1630678969268,54288,336579,307264
1630678969278,54308,336593,307281
1630678969288,54323,336638,307344
1630678969298,54335,336632,307333
1630678969308,54342,336615,307315
1630678969318,54344,336642,307316
1630678969328,54369,336659,307314
1630678969338,54395,336678,307274
1630678969348,54413,336646,307288
1630678969358,54439,336659,307277
1630678969368,54444,336705,307283
1630678969378,54469,336715,307269
1630678969388,54504,336717,307256
1630678969398,54539,336757,307228
1630678969408,54558,336756,307234
1630678969418,54590,336790,307274
1630678969428,54620,336802,307210
1630678969438,54627,336805,307229
1630678969448,54647,336829,307261
1630678969458,54667,336912,307193
1630678969468,54695,336854,307203
1630678969478,54723,336895,307209
1630678969488,54721,336880,307179
1630678969498,54730,336885,307196
1630678969508,54755,336931,307188
1630678969518,54778,336999,307143
1630678969528,54779,336987,307139
1630678969538,54781,336965,307121
1630678969548,54798,337000,307113
1630678969558,54812,337094,307088
1630678969568,54833,337066,307111
1630678969578,54846,337092,307099
1630678969588,54854,337130,307097
1630678969598,54861,337157,307060
1630678969608,54875,337177,307073
1630678969618,54889,337174,307108
1630678969628,54916,337178,307086
1630678969638,54945,337142,307057
1630678969648,54954,337137,307051
1630678969658,54953,337114,307032
1630678969668,54972,337089,307001
1630678969678,54959,337140,307029
1630678969688,54980,337148,307021
1630678969698,54983,337121,307014
1630678969708,54982,337114,307023
1630678969718,55013,337119,307020
1630678969728,55019,337195,307045
1630678969738,55040,337226,307064
1630678969748,55038,337219,307083
1630678969758,55067,337265,307102
1630678969768,55067,337237,307137
1630678969778,55081,337295,307132
1630678969788,55086,337263,307197
1630678969798,55108,337294,307171
1630678969808,55111,337332,307216
1630678969818,55114,337359,307203
1630678969828,55116,337319,307235
1630678969838,55126,337319,307179
1630678969848,55134,337386,307188
1630678969858,55136,337371,307144
1630678969868,55162,337368,307207
1630678969878,55168,337393,307162
1630678969888,55188,337431,307210
1630678969898,55199,337395,307200
1630678969908,55202,337441,307204
1630678969918,55219,337466,307216
1630678969928,55237,337446,307219
1630678969938,55250,337547,307244
1630678969948,55262,337521,307252
1630678969958,55271,337520,307230
1630678969968,55300,337554,307224
1630678969978,55306,337572,307280
1630678969988,55310,337558,307292
1630678969998,55326,337577,307283
1630678970008,55332,337585,307247
1630678970018,55337,337605,307256
1630678970028,55346,337639,307269
1630678970038,55345,337655,307245
1630678970048,55358,337609,307253
1630678970058,55364,337591,307235
1630678970068,55373,337655,307259
1630678970078,55371,337640,307224
1630678970088,55379,337690,307223
1630678970098,55397,337700,307217
1630678970108,55401,337738,307239
1630678970118,55420,337725,307244
1630678970128,55435,337768,307253
1630678970138,55448,337728,307275
1630678970148,55452,337830,307290
1630678970158,55468,337822,307322
1630678970168,55508,337864,307334
1630678970178,55505,337849,307310
1630678970188,55534,337867,307323
1630678970198,55532,337889,307323
1630678970208,55553,337977,307351
1630678970218,55559,337939,307375
1630678970228,55575,337926,307353
1630678970238,55587,337975,307375
1630678970248,55586,338011,307374
1630678970258,55605,338045,307361
1630678970268,55608,338029,307357
1630678970278,55622,338032,307346
1630678970288,55645,338067,307344
1630678970298,55659,338058,307356
1630678970308,55665,338087,307346
1630678970318,55681,338028,307355
1630678970328,55711,338094,307403
1630678970338,55721,338053,307384
1630678970348,55732,338086,307436
1630678970358,55753,338073,307399
1630678970368,55758,338081,307447
1630678970378,55766,338095,307421
1630678970388,55778,338053,307406
1630678970398,55778,338065,307398
1630678970408,55772,338038,307436
1630678970418,55774,338065,307417
1630678970428,55789,338091,307417
1630678970438,55768,338065,307425
1630678970448,55768,338057,307367
1630678970458,55770,338006,307388
1630678970468,55773,338004,307354
1630678970478,55775,338006,307362
1630678970488,55751,338036,307324
1630678970498,55746,337998,307283
1630678970508,55737,337984,307252
1630678970518,55749,337984,307271
1630678970528,55740,338016,307252
1630678970538,55749,337996,307238
1630678970548,55743,338005,307184
1630678970558,55750,337970,307205
1630678970568,55743,338031,307178
1630678970578,55750,338015,307185
1630678970588,55750,338041,307165
1630678970598,55763,338024,307147
1630678970608,55763,338048,307147
1630678970618,55757,338094,307137
1630678970628,55762,338054,307164
1630678970638,55758,338046,307181
1630678970648,55770,338033,307120
1630678970658,55768,338081,307097
1630678970668,55773,338068,307106
1630678970678,55783,338082,307066
1630678970688,55775,338088,307034
1630678970698,55787,338080,307054
1630678970708,55780,338061,307032
1630678970718,55787,338097,307052
1630678970728,55792,338082,306979
1630678970738,55776,338114,307016
1630678970748,55776,338108,307016
1630678970758,55767,338110,306950
1630678970768,55776,338093,306914
1630678970778,55772,338070,306951
1630678970788,55781,338125,306920
1630678970798,55777,338128,306960
1630678970808,55769,338125,306884
1630678970818,55767,338103,306891
1630678970828,55779,338156,306912
1630678970838,55778,338172,306853
1630678970848,55774,338178,306834
1630678970858,55790,338151,306854
1630678970868,55783,338196,306849
1630678970878,55798,338241,306841
1630678970888,55804,338182,306822
1630678970898,55803,338241,306838
1630678970908,55816,338224,306849
1630678970918,55820,338246,306843
1630678970928,55827,338255,306836
1630678970938,55850,338225,306847
1630678970948,55854,338240,306831
1630678970958,55862,338186,306866
1630678970968,55873,338199,306839
1630678970978,55864,338223,306837
1630678970988,55869,338171,306846
1630678970998,55862,338143,306831
1630678971008,55847,338129,306812
1630678971018,55828,338135,306806
1630678971028,55822,338030,306803
1630678971038,55796,338070,306804
1630678971048,55787,338016,306754
1630678971058,55774,338022,306753
1630678971068,55752,338000,306735
1630678971078,55744,337968,306726
1630678971088,55720,337938,306710
1630678971098,55689,337977,306703
1630678971108,55686,337884,306651
1630678971118,55663,337837,306650
1630678971128,55642,337836,306589
1630678971138,55627,337827,306582
1630678971148,55598,337804,306604
1630678971158,55578,337795,306534
1630678971168,55582,337789,306559
1630678971178,55568,337748,306497
1630678971188,55580,337758,306462
1630678971198,55557,337793,306452
1630678971208,55569,337760,306431
1630678971218,55573,337773,306437
1630678971228,55601,337790,306409
1630678971238,55608,337817,306419
1630678971248,55654,337871,306485
1630678971258,55702,337943,306534
1630678971268,55737,338027,306653
1630678971278,55769,338110,306775
1630678971288,55782,338134,306883
1630678971298,55791,338221,306911
1630678971308,55776,338139,306939
1630678971318,55745,338121,306893
1630678971328,55713,338038,306804
1630678971338,55650,337945,306623
1630678971348,55563,337778,306439
1630678971358,55476,337574,306098
1630678971368,55376,337367,305845
1630678971378,55280,337122,305568
1630678971388,55193,336935,305286
1630678971398,55128,336714,305049
1630678971408,55051,336514,304860
1630678971418,54986,336391,304692
1630678971428,54960,336296,304560
1630678971438,54936,336198,304520
1630678971448,54936,336175,304546
1630678971458,54967,336217,304671
1630678971468,54998,336322,304799
1630678971478,55054,336478,305034
1630678971488,55120,336591,305353
1630678971498,55192,336807,305658
1630678971508,55270,336988,305964
1630678971518,55352,337190,306250
1630678971528,55417,337462,306560
1630678971538,55497,337614,306787
1630678971548,55553,337818,307034
1630678971558,55611,337972,307230
1630678971568,55663,338060,307324
1630678971578,55691,338061,307478
1630678971588,55709,338089,307475
1630678971598,55702,338097,307492
1630678971608,55674,338087,307475
1630678971618,55655,338067,307385
1630678971628,55608,337951,307326
1630678971638,55537,337868,307249
1630678971648,55492,337792,307207
1630678971658,55427,337666,307095
1630678971668,55333,337478,306892
1630678971678,55238,337331,306567
1630678971688,55130,337047,306227
1630678971698,55001,336712,305787
1630678971708,54869,336392,305342
1630678971718,54736,336079,304864
1630678971728,54623,335733,304472
1630678971738,54533,335422,304148
1630678971748,54457,335195,303912
1630678971758,54362,335015,303706
1630678971768,54339,334904,303588
1630678971778,54291,334807,303499
1630678971788,54284,334768,303473
1630678971798,54276,334723,303457
1630678971808,54285,334767,303519
1630678971818,54301,334804,303649
1630678971828,54340,334897,303803
1630678971838,54386,335004,304050
1630678971848,54455,335145,304315
1630678971858,54490,335334,304653
1630678971868,54545,335511,304880
1630678971878,54590,335725,305192
1630678971888,54633,335906,305428
1630678971898,54657,336039,305697
1630678971908,54694,336110,305849
1630678971918,54707,336206,305976
1630678971928,54693,336243,306071
1630678971938,54704,336298,306103
1630678971948,54684,336297,306148
1630678971958,54685,336282,306120
1630678971968,54660,336229,306057
1630678971978,54629,336248,306032
1630678971988,54588,336195,305974
1630678971998,54542,336144,305878
1630678972008,54503,335993,305712
1630678972018,54447,335929,305606
1630678972028,54401,335801,305483
1630678972038,54342,335726,305286
1630678972048,54292,335603,305048
1630678972058,54250,335566,304942
1630678972068,54214,335433,304792
1630678972078,54165,335301,304598
1630678972088,54151,335254,304548
1630678972098,54122,335186,304480
1630678972108,54127,335175,304411
1630678972118,54113,335218,304435
1630678972128,54115,335182,304454
1630678972138,54121,335244,304471
1630678972148,54142,335268,304493
1630678972158,54147,335286,304530
1630678972168,54172,335316,304619
1630678972178,54179,335324,304666
1630678972188,54200,335331,304754
1630678972198,54206,335335,304785
1630678972208,54189,335300,304848
1630678972218,54167,335297,304864
1630678972228,54139,335242,304902
1630678972238,54107,335244,304885
1630678972248,54061,335196,304901
1630678972258,54010,335118,304873
1630678972268,53987,335051,304877
1630678972278,53915,335009,304839
1630678972288,53874,334974,304842
1630678972298,53835,334905,304793
1630678972308,53800,334813,304754
1630678972318,53741,334789,304748
1630678972328,53694,334724,304713
1630678972338,53648,334647,304618
1630678972348,53600,334583,304604
1630678972358,53564,334567,304560
1630678972368,53519,334492,304571
1630678972378,53474,334416,304495
1630678972388,53445,334405,304492
1630678972398,53407,334375,304491
1630678972408,53384,334364,304468
1630678972418,53362,334360,304433
1630678972428,53348,334284,304469
1630678972438,53336,334306,304414
1630678972448,53310,334273,304432
1630678972458,53296,334207,304405
1630678972468,53276,334234,304435
1630678972478,53267,334252,304433
1630678972488,53233,334205,304408
1630678972498,53227,334164,304378
1630678972508,53209,334197,304374
1630678972518,53195,334188,304359
1630678972528,53174,334176,304404
1630678972538,53161,334125,304377
1630678972548,53158,334156,304389
1630678972558,53143,334133,304376
1630678972568,53124,334072,304393
1630678972578,53119,334124,304357
1630678972588,53107,334141,304398
1630678972598,53089,334147,304384
1630678972608,53079,334167,304374
1630678972618,53067,334103,304357
1630678972628,53050,334119,304368
1630678972638,53047,334127,304429
1630678972648,53059,334156,304405
1630678972658,53049,334123,304382
1630678972668,53039,334162,304405
1630678972678,53035,334197,304418
1630678972688,53039,334243,304434
1630678972698,53050,334213,304425
1630678972708,53057,334212,304473
1630678972718,53049,334203,304444
1630678972728,53075,334228,304450
1630678972738,53058,334264,304494
1630678972748,53076,334260,304536
1630678972758,53076,334331,304536
1630678972768,53080,334331,304514
1630678972778,53077,334350,304572
1630678972788,53095,334312,304550
1630678972798,53088,334342,304542
1630678972808,53091,334399,304612
1630678972818,53095,334342,304577
1630678972828,53107,334348,304608
1630678972838,53104,334346,304577
1630678972848,53111,334350,304562
1630678972858,53098,334310,304570
1630678972868,53105,334305,304515
1630678972878,53072,334179,304577
1630678972888,53059,334209,304584
1630678972898,53034,334147,304576
1630678972908,53005,334079,304599
1630678972918,52986,334048,304643
1630678972928,52967,333987,304630
1630678972938,52955,334050,304631
1630678972948,52945,334055,304646
1630678972958,52917,333952,304679
1630678972968,52904,333925,304650
1630678972978,52878,333910,304650
1630678972988,52877,333867,304639
1630678972998,52843,333815,304629
1630678973008,52820,333794,304604
1630678973018,52794,333767,304616
1630678973028,52775,333742,304613
1630678973038,52760,333728,304587
1630678973048,52742,333726,304552
1630678973058,52724,333676,304564
1630678973068,52730,333693,304605
1630678973078,52732,333681,304610
1630678973088,52723,333690,304599
1630678973098,52731,333699,304619
1630678973108,52732,333691,304647
1630678973118,52746,333749,304659
1630678973128,52748,333775,304722
1630678973138,52749,333751,304712
1630678973148,52753,333757,304754
1630678973158,52764,333797,304722
1630678973168,52755,333751,304711
1630678973178,52756,333740,304754
1630678973188,52760,333755,304763
1630678973198,52776,333780,304711
1630678973208,52769,333812,304768
1630678973218,52764,333726,304756
1630678973228,52769,333757,304784
1630678973238,52781,333767,304752
1630678973248,52774,333747,304793
1630678973258,52764,333737,304738
1630678973268,52783,333763,304734
1630678973278,52780,333752,304761
1630678973288,52791,333793,304746
1630678973298,52799,333756,304745
1630678973308,52801,333797,304761
1630678973318,52805,333821,304787
1630678973328,52815,333868,304802
1630678973338,52824,333822,304803
1630678973348,52842,333890,304787
1630678973358,52869,333894,304875
1630678973368,52873,333955,304815
1630678973378,52891,333877,304871
1630678973388,52921,333950,304845
1630678973398,52922,333953,304853
1630678973408,52924,333993,304876
1630678973418,52950,334023,304904
1630678973428,52948,334059,304912
1630678973438,52968,334081,304941
1630678973448,52982,334122,304915
1630678973458,52996,334097,304959
1630678973468,53004,334105,304959
1630678973478,53015,334143,304996
1630678973488,53032,334144,304993
1630678973498,53046,334188,305022
1630678973508,53068,334161,305040
1630678973518,53094,334195,305058
1630678973528,53113,334223,305058
1630678973538,53122,334172,305066
1630678973548,53108,334160,305084
1630678973558,53127,334127,305094
1630678973568,53107,334092,305130
1630678973578,53101,334102,305115
1630678973588,53100,334050,305134
1630678973598,53107,334044,305151
1630678973608,53090,334027,305136
1630678973618,53095,334016,305179
1630678973628,53091,334028,305155
1630678973638,53091,334018,305148
1630678973648,53086,333971,305180
1630678973658,53088,334005,305185
1630678973668,53092,333973,305202
1630678973678,53096,333934,305169
1630678973688,53095,333965,305173
1630678973698,53091,333961,305165
1630678973708,53097,333938,305166
1630678973718,53089,333884,305147
1630678973728,53100,333911,305166
1630678973738,53107,333935,305180
1630678973748,53114,333944,305182
1630678973758,53125,333950,305182
1630678973768,53135,334003,305248
1630678973778,53151,333988,305232
1630678973788,53176,333985,305255
1630678973798,53200,334055,305266
1630678973808,53203,334068,305325
1630678973818,53228,334051,305357
1630678973828,53243,334095,305345
1630678973838,53269,334139,305414
1630678973848,53278,334138,305449
1630678973858,53314,334119,305438
1630678973868,53315,334146,305478
1630678973878,53344,334154,305482
1630678973888,53334,334149,305460
1630678973898,53339,334090,305495
1630678973908,53340,334097,305495
1630678973918,53345,334082,305503
1630678973928,53332,334063,305519
1630678973938,53323,334057,305475
1630678973948,53320,334071,305450
1630678973958,53292,334037,305467
1630678973968,53284,333969,305452
1630678973978,53287,334017,305495
1630678973988,53275,334044,305501
1630678973998,53280,334024,305573
1630678974008,53306,334033,305658
1630678974018,53337,334077,305766
1630678974028,53372,334091,305784
1630678974038,53385,334091,305883
1630678974048,53425,334143,305924
1630678974058,53461,334146,305998
1630678974068,53524,334135,305991
1630678974078,53556,334241,306023
1630678974088,53592,334211,306015
1630678974098,53630,334210,306030
1630678974108,53672,334287,306001
1630678974118,53687,334260,306022
1630678974128,53706,334321,305986
1630678974138,53731,334324,305932
1630678974148,53740,334330,305848
1630678974158,53762,334408,305796
1630678974168,53814,334441,305808
1630678974178,53875,334506,305788
1630678974188,53927,334475,305797
1630678974198,53973,334515,305766
1630678974208,54008,334545,305800
1630678974218,54054,334504,305760
1630678974228,54071,334479,305760
1630678974238,54088,334461,305721
1630678974248,54109,334469,305700
1630678974258,54110,334476,305650
1630678974268,54097,334398,305608
1630678974278,54095,334397,305581
1630678974288,54090,334410,305544
1630678974298,54088,334372,305473
1630678974308,54078,334344,305494
1630678974318,54076,334320,305437
1630678974328,54073,334303,305440
1630678974338,54078,334277,305366
1630678974348,54074,334273,305367
1630678974358,54086,334239,305361
1630678974368,54105,334308,305388
1630678974378,54098,334260,305340
1630678974388,54113,334218,305381
1630678974398,54142,334226,305411
1630678974408,54160,334274,305397
1630678974418,54179,334323,305406
1630678974428,54200,334308,305423
1630678974438,54223,334311,305443
1630678974448,54246,334326,305447
1630678974458,54261,334323,305463
1630678974468,54267,334352,305467
1630678974478,54250,334315,305451
1630678974488,54276,334310,305445
1630678974498,54286,334355,305414
1630678974508,54285,334321,305441
1630678974518,54287,334341,305395
1630678974528,54293,334404,305385
1630678974538,54292,334315,305345
1630678974548,54291,334316,305387
1630678974558,54287,334303,305312
1630678974568,54292,334255,305334
1630678974578,54278,334253,305302
1630678974588,54290,334263,305260
1630678974598,54272,334231,305275
1630678974608,54281,334225,305253
1630678974618,54276,334219,305234
1630678974628,54277,334228,305218
1630678974638,54284,334269,305178
1630678974648,54294,334214,305196
1630678974658,54298,334285,305205
1630678974668,54310,334306,305183
1630678974678,54314,334303,305170
1630678974688,54325,334295,305187
1630678974698,54340,334314,305190
1630678974708,54360,334295,305163
1630678974718,54373,334417,305233
1630678974728,54388,334442,305250
1630678974738,54414,334426,305229
1630678974748,54423,334462,305234
1630678974758,54445,334462,305257
1630678974768,54458,334468,305254
1630678974778,54463,334512,305254
1630678974788,54473,334571,305227
1630678974798,54492,334563,305241
1630678974808,54502,334640,305252
1630678974818,54519,334610,305249
1630678974828,54526,334645,305268
1630678974838,54543,334639,305259
1630678974848,54544,334703,305280
1630678974858,54559,334726,305273
1630678974868,54571,334741,305217
1630678974878,54591,334730,305269
1630678974888,54602,334734,305278
1630678974898,54620,334806,305232
1630678974908,54635,334769,305250
1630678974918,54670,334804,305265
1630678974928,54684,334796,305311
1630678974938,54709,334808,305267
1630678974948,54714,334770,305325
1630678974958,54732,334787,305280
1630678974968,54738,334774,305346
1630678974978,54736,334765,305311
1630678974988,54736,334742,305286
1630678974998,54728,334726,305229
1630678975008,54734,334699,305240
1630678975018,54726,334747,305246
1630678975028,54738,334712,305187
1630678975038,54731,334692,305222
1630678975048,54732,334700,305241
1630678975058,54739,334699,305205
1630678975068,54725,334724,305203
1630678975078,54734,334688,305228
1630678975088,54733,334669,305212
1630678975098,54723,334699,305205
1630678975108,54727,334686,305220
1630678975118,54720,334705,305183
1630678975128,54720,334699,305141
1630678975138,54725,334667,305155
1630678975148,54723,334664,305144
1630678975158,54733,334726,305148
1630678975168,54732,334708,305150
1630678975178,54721,334733,305145
1630678975188,54735,334708,305115
1630678975198,54733,334737,305138
1630678975208,54751,334733,305120
1630678975218,54757,334759,305134
1630678975228,54771,334750,305150
1630678975238,54778,334754,305148
1630678975248,54787,334761,305164
1630678975258,54796,334782,305156
1630678975268,54789,334857,305167
1630678975278,54796,334792,305128
1630678975288,54804,334804,305130
1630678975298,54820,334780,305135
1630678975308,54824,334841,305148
1630678975318,54825,334837,305137
1630678975328,54830,334827,305089
1630678975338,54836,334878,305110
1630678975348,54836,334842,305101
1630678975358,54843,334865,305129
1630678975368,54857,334917,305131
1630678975378,54869,334888,305125
1630678975388,54884,334908,305141
1630678975398,54901,334935,305139
1630678975408,54911,334892,305109
1630678975418,54903,334966,305158
1630678975428,54921,335001,305119
1630678975438,54940,335033,305123
1630678975448,54943,335042,305138
1630678975458,54972,335032,305134
1630678975468,54980,335025,305130
1630678975478,54987,335054,305137
1630678975488,55006,335115,305128
1630678975498,55011,335081,305173
1630678975508,55026,335098,305101
1630678975518,55036,335129,305136
1630678975528,55039,335153,305164
1630678975538,55063,335163,305104
1630678975548,55064,335164,305130
1630678975558,55081,335182,305095
1630678975568,55073,335245,305094
1630678975578,55101,335246,305120
1630678975588,55099,335212,305119
1630678975598,55105,335224,305117
1630678975608,55137,335269,305082
1630678975618,55147,335272,305110
1630678975628,55146,335288,305124
1630678975638,55153,335330,305088
1630678975648,55159,335370,305101
1630678975658,55162,335341,305086
1630678975668,55173,335356,305106
1630678975678,55175,335367,305086
1630678975688,55185,335418,305085
1630678975698,55191,335449,305072
1630678975708,55213,335429,305098
1630678975718,55225,335470,305062
1630678975728,55227,335464,305108
1630678975738,55241,335439,305095
1630678975748,55252,335509,305112
1630678975758,55260,335522,305120
1630678975768,55284,335523,305119
1630678975778,55308,335504,305145
1630678975788,55330,335500,305195
1630678975798,55337,335528,305241
1630678975808,55331,335439,305225
1630678975818,55334,335468,305219
1630678975828,55334,335475,305218
1630678975838,55339,335436,305194
1630678975848,55331,335400,305180
1630678975858,55334,335423,305194
1630678975868,55325,335406,305172
1630678975878,55317,335402,305142
1630678975888,55310,335364,305146
1630678975898,55324,335392,305151
1630678975908,55309,335348,305145
1630678975918,55303,335307,305101
1630678975928,55307,335256,305120
1630678975938,55305,335365,305111
1630678975948,55325,335311,305160
1630678975958,55339,335309,305188
1630678975968,55354,335308,305211
1630678975978,55365,335354,305248
1630678975988,55360,335400,305246
1630678975998,55333,335305,305227
1630678976008,55334,335343,305218
1630678976018,55343,335331,305198
1630678976028,55339,335316,305198
1630678976038,55345,335257,305194
1630678976048,55356,335246,305119
1630678976058,55376,335246,305170
1630678976068,55358,335218,305210
1630678976078,55338,335203,305159
1630678976088,55327,335141,305123
1630678976098,55317,335221,305110
1630678976108,55294,335161,305049
1630678976118,55295,335103,305030
1630678976128,55292,335125,305009
1630678976138,55275,335064,304976
1630678976148,55242,335059,304893
1630678976158,55230,335060,304866
1630678976168,55215,334971,304835
1630678976178,55184,334985,304790
1630678976188,55178,334951,304786
1630678976198,55163,335000,304777
1630678976208,55157,334957,304736
1630678976218,55158,334952,304728
1630678976228,55152,334926,304662
1630678976238,55128,334943,304634
1630678976248,55117,334930,304653
1630678976258,55103,334958,304602
1630678976268,55106,334980,304631
1630678976278,55128,335010,304582
1630678976288,55135,334948,304585
1630678976298,55153,334989,304633
1630678976308,55158,335004,304660
1630678976318,55166,335020,304682
1630678976328,55138,335077,304659
1630678976338,55101,335067,304615
1630678976348,55113,335027,304598
1630678976358,55119,335050,304643
1630678976368,55102,335099,304611
1630678976378,55114,335082,304550
1630678976388,55108,335082,304597
1630678976398,55114,335126,304635
1630678976408,55126,335161,304601
1630678976418,55140,335137,304645
1630678976428,55171,335184,304671
1630678976438,55163,335192,304673
1630678976448,55173,335218,304671
1630678976458,55183,335213,304736
1630678976468,55231,335232,304748
1630678976478,55230,335318,304836
1630678976488,55264,335320,304839
1630678976498,55297,335325,304895
1630678976508,55310,335396,304955
1630678976518,55343,335423,304999
1630678976528,55370,335477,305049
1630678976538,55389,335493,305074
1630678976548,55414,335511,305118
1630678976558,55438,335512,305182
1630678976568,55460,335474,305213
1630678976578,55467,335512,305197
1630678976588,55450,335490,305218
1630678976598,55456,335484,305192
1630678976608,55419,335435,305207
1630678976618,55409,335418,305235
1630678976628,55394,335383,305243
1630678976638,55377,335351,305181
1630678976648,55335,335298,305228
1630678976658,55317,335226,305223
1630678976668,55287,335309,305193
1630678976678,55280,335257,305187
1630678976688,55251,335206,305189
1630678976698,55237,335205,305192
1630678976708,55239,335161,305234
1630678976718,55205,335149,305207
1630678976728,55190,335034,305203
1630678976738,55187,334991,305207
1630678976748,55170,334959,305205
1630678976758,55169,334914,305188
1630678976768,55135,334933,305252
1630678976778,55136,334921,305246
1630678976788,55122,334909,305266
1630678976798,55128,334905,305323
1630678976808,55102,334878,305282
1630678976818,55083,334873,305322
1630678976828,55074,334920,305331
1630678976838,55055,334887,305323
1630678976848,55038,334858,305278
1630678976858,55026,334855,305304
1630678976868,55000,334814,305253
1630678976878,54975,334792,305262
1630678976888,54949,334755,305256
1630678976898,54918,334719,305209
1630678976908,54891,334701,305165
1630678976918,54866,334701,305165
1630678976928,54808,334694,305125
1630678976938,54805,334661,305060
1630678976948,54798,334650,305027
1630678976958,54756,334612,304977
1630678976968,54714,334561,304950
1630678976978,54680,334500,304859
1630678976988,54667,334511,304838
1630678976998,54641,334463,304805
1630678977008,54623,334489,304771
1630678977018,54604,334462,304736
1630678977028,54579,334426,304730
1630678977038,54569,334467,304716
1630678977048,54551,334428,304737
1630678977058,54533,334474,304727
1630678977068,54528,334458,304721
1630678977078,54523,334470,304744
1630678977088,54511,334508,304738
1630678977098,54524,334529,304757
1630678977108,54525,334568,304771
1630678977118,54521,334578,304777
1630678977128,54533,334586,304793
1630678977138,54524,334561,304846
1630678977148,54522,334575,304785
1630678977158,54528,334594,304807
1630678977168,54514,334606,304767
1630678977178,54490,334598,304747
1630678977188,54485,334595,304703
1630678977198,54458,334612,304665
1630678977208,54444,334567,304628
1630678977218,54426,334549,304552
1630678977228,54403,334537,304523
1630678977238,54386,334516,304470
1630678977248,54375,334547,304469
1630678977258,54373,334544,304455
1630678977268,54351,334498,304392
1630678977278,54347,334526,304415
1630678977288,54348,334476,304440
1630678977298,54352,334482,304441
1630678977308,54369,334539,304540
1630678977318,54336,334511,304511
1630678977328,54331,334501,304469
1630678977338,54311,334471,304481
1630678977348,54285,334388,304498
1630678977358,54222,334295,304461
1630678977368,54171,334271,304429
1630678977378,54129,334176,304392
1630678977388,54080,334074,304359
1630678977398,54030,334073,304303
1630678977408,53959,334004,304256
1630678977418,53905,333972,304184
1630678977428,53846,333889,304146
1630678977438,53771,333801,304039
1630678977448,53688,333716,303949
1630678977458,53626,333650,303834
1630678977468,53533,333587,303688
1630678977478,53454,333462,303605
1630678977488,53377,333387,303440
1630678977498,53299,333294,303358
1630678977508,53229,333226,303261
1630678977518,53159,333185,303187
1630678977528,53095,333124,303107
1630678977538,53044,333091,303042
1630678977548,53002,333136,303055
1630678977558,52973,333123,303074
1630678977568,52950,333073,303089
1630678977578,52933,333105,303073
1630678977588,52907,333074,303068
1630678977598,52908,333083,303139
1630678977608,52899,333084,303168
1630678977618,52869,333065,303198
1630678977628,52869,333154,303171
1630678977638,52843,333097,303197
1630678977648,52834,333138,303184
1630678977658,52811,333102,303193
1630678977668,52784,333119,303181
1630678977678,52749,333096,303186
1630678977688,52692,333040,303133
1630678977698,52650,333081,303061
1630678977708,52601,333016,303025
1630678977718,52556,333007,302998
1630678977728,52523,333001,302982
1630678977738,52490,332989,302945
1630678977748,52457,333017,302983
1630678977758,52457,332986,302957
1630678977768,52449,333059,302985
1630678977778,52439,333043,303027
1630678977788,52443,333100,303049
1630678977798,52439,333085,303092
1630678977808,52443,333124,303071
1630678977818,52431,333185,303129
1630678977828,52442,333200,303147
1630678977838,52446,333214,303142
1630678977848,52436,333221,303158
1630678977858,52442,333204,303113
1630678977868,52432,333215,303101
1630678977878,52438,333215,303096
1630678977888,52449,333211,303084
1630678977898,52459,333270,303144
1630678977908,52469,333280,303125
1630678977918,52482,333308,303161
1630678977928,52501,333344,303117
1630678977938,52509,333407,303205
1630678977948,52537,333436,303207
1630678977958,52552,333391,303240
1630678977968,52571,333433,303297
1630678977978,52596,333517,303322
1630678977988,52608,333506,303372
1630678977998,52623,333552,303367
1630678978008,52650,333621,303408
1630678978018,52668,333616,303445
1630678978028,52687,333653,303482
1630678978038,52694,333638,303510
1630678978048,52728,333728,303524
1630678978058,52765,333746,303581
1630678978068,52774,333805,303639
1630678978078,52801,333788,303669
1630678978088,52807,333809,303717
1630678978098,52823,333799,303741
1630678978108,52835,333743,303772
1630678978118,52823,333726,303803
1630678978128,52820,333705,303787
1630678978138,52811,333649,303845
1630678978148,52796,333676,303844
1630678978158,52770,333634,303897
1630678978168,52755,333627,303911
1630678978178,52750,333614,303929
1630678978188,52748,333640,303971
1630678978198,52750,333608,303986
1630678978208,52750,333646,304009
1630678978218,52739,333613,304035
1630678978228,52737,333542,304048
1630678978238,52744,333584,304085
1630678978248,52748,333525,304059
1630678978258,52739,333557,304109
1630678978268,52728,333581,304114
1630678978278,52732,333518,304126
1630678978288,52746,333522,304149
1630678978298,52754,333554,304181
1630678978308,52752,333536,304177
1630678978318,52761,333547,304162
1630678978328,52782,333567,304236
1630678978338,52800,333553,304246
1630678978348,52817,333542,304249
1630678978358,52843,333602,304300
1630678978368,52882,333626,304335
1630678978378,52906,333656,304349
1630678978388,52923,333708,304401
1630678978398,52969,333672,304444
1630678978408,52994,333689,304487
1630678978418,53020,333715,304530
1630678978428,53008,333673,304528
1630678978438,53020,333733,304565
1630678978448,53038,333712,304599
1630678978458,53014,333698,304581
1630678978468,53013,333698,304564
1630678978478,53008,333679,304523
1630678978488,53008,333652,304528
1630678978498,52994,333639,304541
1630678978508,53001,333667,304562
1630678978518,52995,333655,304581
1630678978528,52994,333643,304600
1630678978538,53007,333668,304598
1630678978548,53028,333732,304641
1630678978558,53044,333744,304668
1630678978568,53050,333749,304740
1630678978578,53102,333813,304823
1630678978588,53110,333835,304846
1630678978598,53141,333925,304951
1630678978608,53163,333875,304982
1630678978618,53190,334019,305086
1630678978628,53212,334014,305075
1630678978638,53238,334031,305122
1630678978648,53272,334042,305135
1630678978658,53292,334096,305146
1630678978668,53302,334104,305129
1630678978678,53320,334087,305136
1630678978688,53340,334124,305106
1630678978698,53362,334084,305106
1630678978708,53377,334149,305078
1630678978718,53403,334146,305059
1630678978728,53414,334157,305039
1630678978738,53435,334171,305023
1630678978748,53442,334207,305046
1630678978758,53460,334203,305021
1630678978768,53499,334272,305061
1630678978778,53533,334317,305078
1630678978788,53565,334352,305130
1630678978798,53597,334468,305178
1630678978808,53619,334486,305174
1630678978818,53630,334526,305226
1630678978828,53669,334559,305238
1630678978838,53677,334540,305234
1630678978848,53705,334580,305273
1630678978858,53742,334608,305296
1630678978868,53760,334548,305387
1630678978878,53778,334573,305384
1630678978888,53762,334584,305435
1630678978898,53765,334561,305402
1630678978908,53771,334515,305396
1630678978918,53755,334522,305384
1630678978928,53751,334472,305409
1630678978938,53745,334516,305406
1630678978948,53747,334503,305417
1630678978958,53748,334424,305436
1630678978968,53743,334512,305430
1630678978978,53754,334453,305461
1630678978988,53775,334448,305488
1630678978998,53783,334447,305459
1630678979008,53794,334500,305478
1630678979018,53826,334454,305511
1630678979028,53845,334499,305577
1630678979038,53849,334541,305595
1630678979048,53892,334555,305699
1630678979058,53924,334582,305774
1630678979068,53986,334686,305858
1630678979078,54040,334771,306024
1630678979088,54106,334805,306139
1630678979098,54167,334870,306280
1630678979108,54220,334901,306282
1630678979118,54218,334933,306335
1630678979128,54239,334927,306430
1630678979138,54245,335007,306399
1630678979148,54232,334956,306400
1630678979158,54238,334948,306404
1630678979168,54213,334935,306338
1630678979178,54197,334857,306290
1630678979188,54177,334953,306284
1630678979198,54163,334897,306266
1630678979208,54129,334857,306208
1630678979218,54104,334826,306170
1630678979228,54086,334783,306126
1630678979238,54068,334778,306091
1630678979248,54052,334780,306065
1630678979258,54041,334794,306074
1630678979268,54048,334726,306043
1630678979278,54049,334774,306011
1630678979288,54048,334754,306014
1630678979298,54035,334773,306029
1630678979308,54042,334807,306019
1630678979318,54044,334793,306048
1630678979328,54049,334811,306027
1630678979338,54051,334798,306006
1630678979348,54061,334788,306002
1630678979358,54049,334800,305979
1630678979368,54047,334763,305981
1630678979378,54049,334794,305919
1630678979388,54052,334799,305867
1630678979398,54062,334789,305787
1630678979408,54053,334805,305827
1630678979418,54065,334829,305793
1630678979428,54083,334821,305774
1630678979438,54089,334821,305776
1630678979448,54103,334861,305736
1630678979458,54140,334859,305756
1630678979468,54153,334870,305810
1630678979478,54173,334944,305868
1630678979488,54199,334978,305880
1630678979498,54219,335038,305880
1630678979508,54254,335042,305873
1630678979518,54274,335082,305932
1630678979528,54296,335057,305959
1630678979538,54308,335054,305979
1630678979548,54322,335040,305979
1630678979558,54335,335024,305968
1630678979568,54334,335060,305898
1630678979578,54328,335010,305914
1630678979588,54327,334923,305831
1630678979598,54314,334916,305865
1630678979608,54315,334891,305801
1630678979618,54288,334840,305786
1630678979628,54282,334812,305732
1630678979638,54274,334821,305705
1630678979648,54266,334803,305673
1630678979658,54253,334785,305685
1630678979668,54268,334776,305650
1630678979678,54272,334736,305652
1630678979688,54269,334708,305607
1630678979698,54262,334721,305596
1630678979708,54273,334740,305611
1630678979718,54263,334712,305546
1630678979728,54262,334738,305528
1630678979738,54252,334684,305507
1630678979748,54246,334717,305477
1630678979758,54261,334700,305484
1630678979768,54255,334721,305438
1630678979778,54252,334634,305414
1630678979788,54245,334672,305382
1630678979798,54249,334649,305342
1630678979808,54246,334666,305331
1630678979818,54238,334702,305304
1630678979828,54247,334649,305306
1630678979838,54249,334645,305216
1630678979848,54246,334641,305238
1630678979858,54256,334664,305244
1630678979868,54254,334688,305218
1630678979878,54255,334651,305208
1630678979888,54247,334711,305195
1630678979898,54266,334687,305192
1630678979908,54267,334686,305173
1630678979918,54270,334732,305146
1630678979928,54271,334669,305116
1630678979938,54268,334681,305120
1630678979948,54275,334675,305109
1630678979958,54276,334768,305112
1630678979968,54275,334720,305088
1630678979978,54277,334712,305095
1630678979988,54298,334746,305082
1630678979998,54269,334743,305059
1630678980008,54291,334773,305033
1630678980018,54293,334757,305019
1630678980028,54301,334770,304997
1630678980038,54296,334806,305027
1630678980048,54309,334839,305041
1630678980058,54313,334854,305038
1630678980068,54331,334871,305023
1630678980078,54344,334911,305014
1630678980088,54353,334865,305023
1630678980098,54372,334894,305010
1630678980108,54379,334938,304997
1630678980118,54374,334938,304979
1630678980128,54388,334947,304940
1630678980138,54395,335008,304944
1630678980148,54404,334995,304951
1630678980158,54413,334917,304957
1630678980168,54424,335007,304938
1630678980178,54428,335010,304949
1630678980188,54442,335050,304914
1630678980198,54463,334987,304899
1630678980208,54478,334979,304936
1630678980218,54486,334982,304906
1630678980228,54488,334975,304929
1630678980238,54506,334969,304929
1630678980248,54509,334987,304895
1630678980258,54513,334911,304939
1630678980268,54508,334930,304918
1630678980278,54501,334944,304917
1630678980288,54496,334961,304897
1630678980298,54497,334945,304882
1630678980308,54499,334933,304893
1630678980318,54489,334911,304892
1630678980328,54490,334942,304882
1630678980338,54496,334923,304862
1630678980348,54502,334887,304866
1630678980358,54483,334869,304829
1630678980368,54481,334875,304794
1630678980378,54477,334818,304793
1630678980388,54478,334834,304808
1630678980398,54470,334805,304771
1630678980408,54466,334801,304750
1630678980418,54466,334805,304748
1630678980428,54461,334797,304731
1630678980438,54458,334795,304718
1630678980448,54462,334862,304710
1630678980458,54459,334830,304691
1630678980468,54448,334828,304706
1630678980478,54465,334832,304703
1630678980488,54456,334839,304677
1630678980498,54464,334845,304682
1630678980508,54456,334853,304641
1630678980518,54456,334846,304634
1630678980528,54464,334842,304663
1630678980538,54464,334865,304626
1630678980548,54464,334823,304623
1630678980558,54452,334832,304578
1630678980568,54451,334855,304573
1630678980578,54431,334862,304526
1630678980588,54431,334823,304480
1630678980598,54394,334858,304426
1630678980608,54359,334809,304387
1630678980618,54326,334818,304332
1630678980628,54291,334798,304252
1630678980638,54262,334767,304243
1630678980648,54222,334738,304129
1630678980658,54196,334756,304065
1630678980668,54157,334781,303986
1630678980678,54085,334726,303917
1630678980688,54021,334642,303791
1630678980698,53955,334547,303686
1630678980708,53869,334519,303532
1630678980718,53794,334465,303362
1630678980728,53703,334379,303250
1630678980738,53603,334284,303086
1630678980748,53503,334235,302908
1630678980758,53385,334167,302749
1630678980768,53268,334088,302569
1630678980778,53155,334028,302377
1630678980788,53044,333929,302183
1630678980798,52920,333866,302045
1630678980808,52797,333768,301819
1630678980818,52651,333654,301603
1630678980828,52497,333573,301370
1630678980838,52340,333423,301156
1630678980848,52191,333304,300918
1630678980858,52017,333161,300643
1630678980868,51848,332979,300349
1630678980878,51689,332786,300082
1630678980888,51527,332665,299893
1630678980898,51373,332454,299594
1630678980908,51229,332336,299371
1630678980918,51066,332144,299165
1630678980928,50921,331924,298910
1630678980938,50760,331757,298601
1630678980948,50617,331604,298391
1630678980958,50471,331447,298120
1630678980968,50317,331282,297874
1630678980978,50176,331109,297661
1630678980988,50043,330948,297439
1630678980998,49910,330776,297184
1630678981008,49770,330644,296973
1630678981018,49653,330467,296760
1630678981028,49504,330331,296564
1630678981038,49379,330210,296378
1630678981048,49247,330047,296132
1630678981058,49127,329914,295958
1630678981068,49001,329724,295812
1630678981078,48901,329655,295628
1630678981088,48801,329615,295472
1630678981098,48697,329456,295311
1630678981108,48590,329387,295136
1630678981118,48494,329272,294951
1630678981128,48399,329189,294864
1630678981138,48342,329109,294673
1630678981148,48249,329019,294558
1630678981158,48193,328906,294495
1630678981168,48160,328895,294401
1630678981178,48119,328819,294343
1630678981188,48070,328786,294238
1630678981198,48017,328759,294180
1630678981208,47971,328744,294126
1630678981218,47924,328646,294027
1630678981228,47877,328637,293950
1630678981238,47824,328539,293890
1630678981248,47806,328525,293887
1630678981258,47771,328448,293795
1630678981268,47756,328422,293772
1630678981278,47733,328396,293733
1630678981288,47707,328357,293701
1630678981298,47735,328409,293703
1630678981308,47731,328399,293745
1630678981318,47712,328395,293691
1630678981328,47707,328371,293670
1630678981338,47700,328418,293665
1630678981348,47711,328419,293707
1630678981358,47717,328427,293692
1630678981368,47725,328395,293696
1630678981378,47741,328425,293703
1630678981388,47732,328433,293693
1630678981398,47733,328456,293655
1630678981408,47734,328449,293690
1630678981418,47711,328394,293640
1630678981428,47691,328371,293625
1630678981438,47683,328320,293604
1630678981448,47653,328332,293591
1630678981458,47634,328322,293500
1630678981468,47600,328288,293422
1630678981478,47547,328232,293353
1630678981488,47525,328201,293290
1630678981498,47494,328192,293222
1630678981508,47491,328185,293258
1630678981518,47494,328124,293254
1630678981528,47521,328192,293280
1630678981538,47545,328197,293354
1630678981548,47581,328304,293410
1630678981558,47604,328341,293461
1630678981568,47628,328328,293552
1630678981578,47650,328368,293564
1630678981588,47695,328379,293621
1630678981598,47723,328420,293714
1630678981608,47749,328389,293760
1630678981618,47770,328389,293820
1630678981628,47767,328389,293818
1630678981638,47768,328367,293842
1630678981648,47741,328325,293817
1630678981658,47718,328216,293779
1630678981668,47701,328196,293725
1630678981678,47679,328165,293718
1630678981688,47665,328088,293684
1630678981698,47645,328051,293681
1630678981708,47626,328009,293643
1630678981718,47625,327973,293635
1630678981728,47615,327963,293651
1630678981738,47603,327925,293660
1630678981748,47602,327954,293651
1630678981758,47590,327945,293662
1630678981768,47583,327938,293621
1630678981778,47559,327939,293632
1630678981788,47574,327993,293652
1630678981798,47586,327973,293663
1630678981808,47605,327994,293743
1630678981818,47640,328020,293808
1630678981828,47688,328070,293918
1630678981838,47729,328119,293978
1630678981848,47756,328150,294008
1630678981858,47789,328115,294080
1630678981868,47794,328191,294099
1630678981878,47787,328122,294084
1630678981888,47787,328099,294095
1630678981898,47777,328088,294047
1630678981908,47778,328043,294054
1630678981918,47782,328038,294085
1630678981928,47791,328130,294105
1630678981938,47796,328114,294133
1630678981948,47804,328098,294173
1630678981958,47801,328122,294204
1630678981968,47818,328105,294263
1630678981978,47818,328134,294278
1630678981988,47832,328174,294329
1630678981998,47870,328183,294422
1630678982008,47888,328244,294486
1630678982018,47905,328258,294582
1630678982028,47915,328304,294588
1630678982038,47928,328340,294654
1630678982048,47936,328294,294647
1630678982058,47950,328326,294667
1630678982068,47961,328343,294762
1630678982078,47987,328410,294772
1630678982088,48017,328388,294835
1630678982098,48054,328469,294923
1630678982108,48113,328492,295028
1630678982118,48143,328585,295127
1630678982128,48193,328575,295238
1630678982138,48268,328747,295346
1630678982148,48340,328907,295537
1630678982158,48438,329054,295697
1630678982168,48529,329164,295859
1630678982178,48623,329227,296049
1630678982188,48697,329373,296195
1630678982198,48772,329511,296396
1630678982208,48844,329582,296519
1630678982218,48893,329671,296637
1630678982228,48937,329683,296711
1630678982238,48975,329767,296788
1630678982248,48989,329718,296842
1630678982258,49005,329738,296878
1630678982268,48981,329676,296855
1630678982278,48954,329611,296831
1630678982288,48915,329531,296815
1630678982298,48861,329486,296753
1630678982308,48824,329433,296752
1630678982318,48788,329386,296710
1630678982328,48764,329362,296696
1630678982338,48754,329330,296714
1630678982348,48761,329275,296734
1630678982358,48758,329283,296759
1630678982368,48767,329264,296791
1630678982378,48760,329278,296834
1630678982388,48749,329249,296829
1630678982398,48752,329180,296841
1630678982408,48750,329201,296813
1630678982418,48752,329204,296855
1630678982428,48767,329227,296940
1630678982438,48767,329212,296963
1630678982448,48783,329233,296992
1630678982458,48803,329285,297072
1630678982468,48820,329306,297131
1630678982478,48853,329390,297232
1630678982488,48899,329398,297305
1630678982498,48957,329532,297423
1630678982508,48995,329498,297500
1630678982518,49038,329567,297591
1630678982528,49065,329611,297664
1630678982538,49096,329642,297708
1630678982548,49120,329620,297749
1630678982558,49153,329697,297880
1630678982568,49191,329723,297957
1630678982578,49226,329750,298078
1630678982588,49268,329802,298089
1630678982598,49305,329822,298215
1630678982608,49378,329906,298355
1630678982618,49429,329882,298463
1630678982628,49494,330050,298622
1630678982638,49555,330104,298752
1630678982648,49601,330166,298857
1630678982658,49655,330179,298941
1630678982668,49700,330221,299085
1630678982678,49762,330315,299229
1630678982688,49807,330353,299288
1630678982698,49857,330465,299333
1630678982708,49908,330559,299479
1630678982718,49965,330563,299566
1630678982728,50014,330669,299662
1630678982738,50069,330719,299736
1630678982748,50096,330811,299797
1630678982758,50137,330840,299888
1630678982768,50173,330911,299931
1630678982778,50203,330950,299978
1630678982788,50234,330996,300031
1630678982798,50273,331030,300098
1630678982808,50322,331137,300214
1630678982818,50366,331189,300213
1630678982828,50414,331240,300302
1630678982838,50456,331277,300354
1630678982848,50495,331376,300490
1630678982858,50568,331470,300570
1630678982868,50619,331506,300658
1630678982878,50701,331642,300767
1630678982888,50784,331678,300894
1630678982898,50877,331807,301026
1630678982908,50964,331889,301127
1630678982918,51045,331925,301327
1630678982928,51158,331939,301451
1630678982938,51217,332030,301600
1630678982948,51316,332060,301737
1630678982958,51368,332104,301845
1630678982968,51431,332130,301917
1630678982978,51470,332167,302086
1630678982988,51509,332168,302123
1630678982998,51562,332169,302242
1630678983008,51603,332190,302303
1630678983018,51632,332171,302368
1630678983028,51657,332206,302424
1630678983038,51693,332178,302508
1630678983048,51719,332211,302590
1630678983058,51757,332221,302669
1630678983068,51776,332260,302746
1630678983078,51787,332233,302766
1630678983088,51799,332244,302828
1630678983098,51806,332221,302851
1630678983108,51821,332223,302848
1630678983118,51830,332203,302859
1630678983128,51853,332207,302882
1630678983138,51866,332215,302918
1630678983148,51878,332187,302918
1630678983158,51888,332199,302897
1630678983168,51896,332219,302901
1630678983178,51907,332152,302883
1630678983188,51922,332175,302875
1630678983198,51925,332135,302868
1630678983208,51924,332092,302853
1630678983218,51934,332055,302814
1630678983228,51941,332139,302819
1630678983238,51950,332086,302854
1630678983248,51950,332089,302845
1630678983258,51975,332114,302829
1630678983268,51993,332137,302807
1630678983278,51988,332147,302804
1630678983288,51999,332127,302791
1630678983298,52003,332170,302818
1630678983308,52030,332192,302821
1630678983318,52040,332209,302836
1630678983328,52057,332275,302827
1630678983338,52075,332290,302864
1630678983348,52092,332350,302885
1630678983358,52110,332396,302917
1630678983368,52140,332385,302996
1630678983378,52162,332414,303016
1630678983388,52185,332461,303034
1630678983398,52204,332530,303039
1630678983408,52207,332519,303035
1630678983418,52224,332606,303083
1630678983428,52262,332626,303096
1630678983438,52281,332620,303117
1630678983448,52292,332666,303124
1630678983458,52306,332679,303145
1630678983468,52347,332759,303158
1630678983478,52364,332765,303213
1630678983488,52383,332780,303234
1630678983498,52408,332808,303254
1630678983508,52424,332858,303258
1630678983518,52445,332907,303295
1630678983528,52466,332911,303270
1630678983538,52488,332941,303270
1630678983548,52497,332920,303270
1630678983558,52523,332921,303246
1630678983568,52526,332956,303292
1630678983578,52540,333027,303290
1630678983588,52564,333026,303280
1630678983598,52584,332983,303271
1630678983608,52599,333069,303257
1630678983618,52625,333128,303284
1630678983628,52644,333096,303296
1630678983638,52645,333101,303285
1630678983648,52681,333154,303323
1630678983658,52697,333126,303284
1630678983668,52719,333207,303314
1630678983678,52733,333232,303312
1630678983688,52764,333249,303326
1630678983698,52789,333299,303335
1630678983708,52821,333271,303369
1630678983718,52860,333326,303376
1630678983728,52887,333354,303381
1630678983738,52907,333288,303415
1630678983748,52923,333287,303427
1630678983758,52936,333285,303458
1630678983768,52936,333308,303469
1630678983778,52936,333271,303474
1630678983788,52942,333304,303494
1630678983798,52960,333319,303466
1630678983808,52962,333304,303485
1630678983818,52967,333300,303521
1630678983828,52985,333275,303546
1630678983838,53001,333324,303576
1630678983848,53010,333341,303574
1630678983858,53029,333319,303620
1630678983868,53046,333315,303638
1630678983878,53082,333364,303644
1630678983888,53074,333344,303647
1630678983898,53094,333357,303661
1630678983908,53099,333351,303637
1630678983918,53111,333359,303666
1630678983928,53114,333331,303664
1630678983938,53121,333372,303619
1630678983948,53129,333360,303664
1630678983958,53133,333383,303673
1630678983968,53132,333321,303644
1630678983978,53141,333371,303614
1630678983988,53137,333332,303596
1630678983998,53134,333386,303613
1630678984008,53142,333326,303612
1630678984018,53142,333343,303609
1630678984028,53148,333367,303604
1630678984038,53153,333368,303565
1630678984048,53166,333406,303585
1630678984058,53176,333369,303554
1630678984068,53185,333321,303542
1630678984078,53198,333320,303545
1630678984088,53206,333393,303554
1630678984098,53224,333391,303569
1630678984108,53237,333392,303547
1630678984118,53252,333414,303564
1630678984128,53272,333449,303538
1630678984138,53282,333435,303547
1630678984148,53302,333479,303559
1630678984158,53312,333470,303547
1630678984168,53327,333453,303504
1630678984178,53342,333449,303533
1630678984188,53365,333483,303519
1630678984198,53376,333503,303519
1630678984208,53394,333511,303525
1630678984218,53400,333537,303538
1630678984228,53437,333529,303563
1630678984238,53457,333565,303551
1630678984248,53481,333671,303604
1630678984258,53507,333676,303637
1630678984268,53534,333700,303632
1630678984278,53567,333764,303645
1630678984288,53577,333690,303642
1630678984298,53606,333751,303688
1630678984308,53643,333782,303692
1630678984318,53670,333818,303742
1630678984328,53687,333851,303759
1630678984338,53720,333869,303757
1630678984348,53753,333894,303776
1630678984358,53778,333921,303821
1630678984368,53808,333975,303831
1630678984378,53846,333997,303836
1630678984388,53875,334003,303869
1630678984398,53900,334062,303874
1630678984408,53920,334080,303882
1630678984418,53940,334113,303918
1630678984428,53958,334148,303852
1630678984438,53987,334152,303860
1630678984448,53998,334181,303883
1630678984458,54015,334175,303870
1630678984468,54039,334190,303899
1630678984478,54046,334194,303923
1630678984488,54053,334191,303905
1630678984498,54072,334238,303886
1630678984508,54089,334297,303912
1630678984518,54116,334317,303902
1630678984528,54146,334290,303937
1630678984538,54175,334346,303936
1630678984548,54190,334378,303946
1630678984558,54212,334378,303935
1630678984568,54230,334372,303953
1630678984578,54273,334378,303990
1630678984588,54301,334429,303980
1630678984598,54337,334414,304010
1630678984608,54358,334439,304015
1630678984618,54386,334491,304033
1630678984628,54394,334406,304084
1630678984638,54409,334476,304084
1630678984648,54420,334476,304062
1630678984658,54424,334426,304081
1630678984668,54438,334424,304087
1630678984678,54445,334448,304066
1630678984688,54448,334457,304050
1630678984698,54459,334422,304054
1630678984708,54468,334452,304107
1630678984718,54475,334448,304065
1630678984728,54474,334450,304040
1630678984738,54471,334407,304017
1630678984748,54481,334400,304015
1630678984758,54491,334406,304017
1630678984768,54499,334430,303984
1630678984778,54505,334405,303978
1630678984788,54496,334431,303973
1630678984798,54510,334433,303979
1630678984808,54524,334472,303976
1630678984818,54532,334460,303976
1630678984828,54525,334433,303978
1630678984838,54539,334414,303988
1630678984848,54556,334425,303972
1630678984858,54560,334424,303953
1630678984868,54570,334448,303962
1630678984878,54581,334469,303908
1630678984888,54589,334419,303948
1630678984898,54610,334434,303927
1630678984908,54615,334427,303972
1630678984918,54637,334472,303950
1630678984928,54637,334482,303947
1630678984938,54657,334440,303929
1630678984948,54666,334486,303953
1630678984958,54683,334437,303899
1630678984968,54681,334492,303932
1630678984978,54700,334563,303903
1630678984988,54690,334512,303916
1630678984998,54719,334495,303877
1630678985008,54724,334522,303884
1630678985018,54737,334540,303895
1630678985028,54736,334548,303882
1630678985038,54730,334517,303870
1630678985048,54744,334514,303863
1630678985058,54742,334513,303836
1630678985068,54761,334570,303809
1630678985078,54763,334549,303850
1630678985088,54785,334583,303834
1630678985098,54793,334581,303817
1630678985108,54810,334615,303869
1630678985118,54808,334665,303867
1630678985128,54829,334640,303829
1630678985138,54836,334650,303808
1630678985148,54851,334697,303796
1630678985158,54854,334702,303825
1630678985168,54855,334714,303801
1630678985178,54880,334742,303828
1630678985188,54901,334714,303816
1630678985198,54910,334722,303809
1630678985208,54934,334738,303792
1630678985218,54929,334731,303830
1630678985228,54933,334721,303815
1630678985238,54948,334772,303780
1630678985248,54961,334802,303828
1630678985258,54976,334780,303797
1630678985268,54989,334804,303772
1630678985278,55001,334829,303760
1630678985288,55011,334805,303784
1630678985298,55016,334832,303782
1630678985308,55026,334839,303808
1630678985318,55036,334831,303807
1630678985328,55048,334867,303796
1630678985338,55060,334910,303808
1630678985348,55101,334961,303805
1630678985358,55120,334887,303803
1630678985368,55153,334885,303813
1630678985378,55135,334936,303808
1630678985388,55149,334873,303816
1630678985398,55169,334893,303825
1630678985408,55160,334844,303799
1630678985418,55183,334866,303770
1630678985428,55175,334807,303802
1630678985438,55173,334856,303801
1630678985448,55165,334783,303773
1630678985458,55165,334742,303770
1630678985468,55162,334812,303768
1630678985478,55161,334743,303729
1630678985488,55147,334727,303714
1630678985498,55143,334738,303728
1630678985508,55151,334676,303678
1630678985518,55134,334642,303667
1630678985528,55127,334631,303659
1630678985538,55127,334601,303670
1630678985548,55116,334612,303598
1630678985558,55102,334572,303615
1630678985568,55091,334568,303578
1630678985578,55089,334538,303580
1630678985588,55073,334554,303540
1630678985598,55090,334533,303582
1630678985608,55092,334553,303556
1630678985618,55090,334552,303553
1630678985628,55098,334526,303510
1630678985638,55109,334581,303513
1630678985648,55110,334579,303500
1630678985658,55102,334585,303509
1630678985668,55119,334587,303496
1630678985678,55120,334586,303454
1630678985688,55141,334600,303459
1630678985698,55142,334598,303436
1630678985708,55167,334596,303417
1630678985718,55202,334666,303399
1630678985728,55230,334651,303436
1630678985738,55252,334698,303417
1630678985748,55257,334714,303442
1630678985758,55259,334701,303411
1630678985768,55264,334645,303418
1630678985778,55259,334623,303390
1630678985788,55244,334611,303323
1630678985798,55241,334645,303318
1630678985808,55226,334592,303234
1630678985818,55208,334498,303179
1630678985828,55190,334521,303124
1630678985838,55177,334544,303104
1630678985848,55163,334502,303039
1630678985858,55140,334519,303032
1630678985868,55124,334515,303018
1630678985878,55109,334528,302981
1630678985888,55115,334506,302977
1630678985898,55119,334496,302960
1630678985908,55106,334552,303023
1630678985918,55101,334596,302940
1630678985928,55103,334507,302954
1630678985938,55093,334521,302966
1630678985948,55095,334570,302969
1630678985958,55095,334579,302949
1630678985968,55095,334479,303000
1630678985978,55089,334563,302950
1630678985988,55100,334558,302933
1630678985998,55116,334550,302959
1630678986008,55118,334546,302962
1630678986018,55122,334558,302977
1630678986028,55103,334547,302988
1630678986038,55095,334494,302984
1630678986048,55090,334457,302938
1630678986058,55088,334552,302936
1630678986068,55081,334495,302912
1630678986078,55073,334470,302923
1630678986088,55065,334488,302859
1630678986098,55071,334485,302885
1630678986108,55069,334470,302854
1630678986118,55073,334464,302906
1630678986128,55078,334440,302898
1630678986138,55095,334417,302884
1630678986148,55098,334485,302865
1630678986158,55106,334445,302874
1630678986168,55120,334405,302895
1630678986178,55116,334354,302889
1630678986188,55109,334323,302892
1630678986198,55106,334336,302882
1630678986208,55102,334298,302915
1630678986218,55090,334269,302873
1630678986228,55086,334223,302864
1630678986238,55072,334235,302844
1630678986248,55072,334148,302870
1630678986258,55064,334192,302863
1630678986268,55036,334160,302861
1630678986278,55025,334103,302824
1630678986288,55000,334073,302771
1630678986298,54992,334066,302794
1630678986308,54979,334000,302801
1630678986318,54958,333979,302753
1630678986328,54946,334022,302728
1630678986338,54922,333966,302706
1630678986348,54917,333932,302700
1630678986358,54883,333941,302695
1630678986368,54869,333907,302677
1630678986378,54851,333938,302635
1630678986388,54830,333884,302641
1630678986398,54822,333852,302613
1630678986408,54795,333843,302634
1630678986418,54772,333802,302570
1630678986428,54756,333764,302522
1630678986438,54732,333769,302519
1630678986448,54718,333756,302497
1630678986458,54694,333714,302462
1630678986468,54689,333710,302480
1630678986478,54674,333663,302478
1630678986488,54646,333662,302443
1630678986498,54639,333687,302453
1630678986508,54627,333678,302426
1630678986518,54619,333671,302483
1630678986528,54608,333660,302464
1630678986538,54598,333643,302483
1630678986548,54590,333669,302450
1630678986558,54579,333617,302422
1630678986568,54567,333659,302419
1630678986578,54564,333609,302435
1630678986588,54547,333628,302450
1630678986598,54535,333640,302454
1630678986608,54529,333625,302426
1630678986618,54508,333576,302405
1630678986628,54508,333585,302460
1630678986638,54483,333588,302432
1630678986648,54503,333600,302441
1630678986658,54501,333588,302433
1630678986668,54511,333591,302439
1630678986678,54497,333618,302484
1630678986688,54501,333633,302491
1630678986698,54499,333653,302518
1630678986708,54495,333651,302538
1630678986718,54512,333626,302553
1630678986728,54498,333678,302539
1630678986738,54490,333633,302591
1630678986748,54512,333692,302618
1630678986758,54515,333706,302617
1630678986768,54524,333666,302649
1630678986778,54535,333724,302636
1630678986788,54539,333732,302618
1630678986798,54566,333730,302665
1630678986808,54582,333787,302654
1630678986818,54580,333805,302721
1630678986828,54615,333833,302690
1630678986838,54619,333807,302731
1630678986848,54619,333834,302740
1630678986858,54642,333912,302746
1630678986868,54647,333875,302777
1630678986878,54641,333900,302746
1630678986888,54640,333874,302734
1630678986898,54655,333859,302782
1630678986908,54669,333844,302797
1630678986918,54694,333877,302832
1630678986928,54717,333879,302853
1630678986938,54716,333807,302847
1630678986948,54681,333768,302817
1630678986958,54671,333696,302862
1630678986968,54638,333654,302868
1630678986978,54612,333657,302830
1630678986988,54612,333586,302853
1630678986998,54592,333614,302803
1630678987008,54579,333627,302850
1630678987018,54523,333561,302824
1630678987028,54495,333505,302830
1630678987038,54475,333464,302826
1630678987048,54455,333390,302772
1630678987058,54429,333352,302731
1630678987068,54405,333320,302744
1630678987078,54391,333297,302718
1630678987088,54360,333234,302685
1630678987098,54332,333187,302662
1630678987108,54312,333117,302637
1630678987118,54247,333040,302570
1630678987128,54231,332996,302531
1630678987138,54204,332935,302487
1630678987148,54172,332879,302462
1630678987158,54144,332915,302441
1630678987168,54133,332783,302441
1630678987178,54121,332754,302425
1630678987188,54101,332774,302426
1630678987198,54078,332751,302444
1630678987208,54078,332703,302459
1630678987218,54049,332686,302415
1630678987228,54043,332681,302439
1630678987238,54036,332643,302429
1630678987248,54020,332675,302462
1630678987258,54010,332705,302464
1630678987268,53990,332673,302451
1630678987278,53988,332671,302504
1630678987288,53990,332699,302494
1630678987298,53980,332687,302517
1630678987308,53970,332681,302517
1630678987318,53950,332647,302514
1630678987328,53950,332709,302535
1630678987338,53948,332649,302573
1630678987348,53946,332672,302570
1630678987358,53948,332653,302633
1630678987368,53948,332716,302619
1630678987378,53949,332699,302681
1630678987388,53949,332723,302685
1630678987398,53967,332721,302720
1630678987408,53945,332729,302725
1630678987418,53938,332758,302707
1630678987428,53953,332744,302730
1630678987438,53953,332728,302757
1630678987448,53947,332798,302686
1630678987458,53948,332743,302763
1630678987468,53942,332778,302739
1630678987478,53948,332730,302725
1630678987488,53936,332732,302725
1630678987498,53936,332749,302693
1630678987508,53932,332714,302681
1630678987518,53930,332706,302669
1630678987528,53921,332678,302712
1630678987538,53921,332715,302646
1630678987548,53911,332681,302612
1630678987558,53911,332668,302609
1630678987568,53907,332732,302606
1630678987578,53907,332668,302607
1630678987588,53907,332681,302595
1630678987598,53904,332737,302637
1630678987608,53921,332729,302636
1630678987618,53904,332748,302641
1630678987628,53924,332744,302623
1630678987638,53928,332809,302626
1630678987648,53928,332764,302659
1630678987658,53951,332733,302651
1630678987668,53943,332746,302702
1630678987678,53940,332750,302706
1630678987688,53927,332644,302693
1630678987698,53890,332647,302668
1630678987708,53866,332573,302668
1630678987718,53833,332502,302677
1630678987728,53791,332493,302677
1630678987738,53761,332474,302701
1630678987748,53736,332454,302763
1630678987758,53719,332400,302767
1630678987768,53685,332457,302719
1630678987778,53676,332388,302748
1630678987788,53631,332358,302757
1630678987798,53612,332317,302751
1630678987808,53578,332299,302770
1630678987818,53555,332315,302805
1630678987828,53541,332264,302809
1630678987838,53515,332246,302825
1630678987848,53510,332235,302861
1630678987858,53488,332219,302888
1630678987868,53468,332228,302841
1630678987878,53454,332168,302847
1630678987888,53442,332125,302856
1630678987898,53436,332100,302877
1630678987908,53432,332115,302896
1630678987918,53430,332058,302918
1630678987928,53411,332042,302889
1630678987938,53409,332075,302885
1630678987948,53376,331990,302906
1630678987958,53367,332026,302876
1630678987968,53344,331940,302840
1630678987978,53319,331914,302824
1630678987988,53305,331942,302786
1630678987998,53278,331945,302781
1630678988008,53262,331928,302747
1630678988018,53249,331882,302752
1630678988028,53252,331853,302734
1630678988038,53235,331887,302722
1630678988048,53219,331884,302730
1630678988058,53211,331877,302772
1630678988068,53210,331890,302782
1630678988078,53218,331943,302779
1630678988088,53210,331869,302769
1630678988098,53218,331907,302762
1630678988108,53218,331844,302749
1630678988118,53200,331890,302746
1630678988128,53206,331877,302725
1630678988138,53223,331938,302749
1630678988148,53223,331849,302767
1630678988158,53239,331909,302772
1630678988168,53256,331919,302794
1630678988178,53264,331937,302778
1630678988188,53281,331925,302833
1630678988198,53283,331973,302875
1630678988208,53299,332014,302897
1630678988218,53308,332037,302932
1630678988228,53318,332058,302963
1630678988238,53313,332096,302975
1630678988248,53308,332121,303032
1630678988258,53294,332068,303016
1630678988268,53297,332073,302980
1630678988278,53277,332051,302965
1630678988288,53249,332039,302883
1630678988298,53225,332034,302810
1630678988308,53177,332024,302734
1630678988318,53111,331968,302647
1630678988328,53011,331916,302396
1630678988338,52883,331836,302096
1630678988348,52706,331824,301834
1630678988358,52552,331748,301580
1630678988368,52415,331697,301327
1630678988378,52278,331624,301142
1630678988388,52177,331629,300927
1630678988398,52113,331656,300821
1630678988408,52091,331597,300793
1630678988418,52079,331632,300788
1630678988428,52092,331671,300808
1630678988438,52095,331598,300881
1630678988448,52110,331629,301015
1630678988458,52144,331644,301070
1630678988468,52172,331599,301164
1630678988478,52204,331662,301222
1630678988488,52247,331664,301350
1630678988498,52293,331673,301456
1630678988508,52337,331674,301540
1630678988518,52362,331686,301619
1630678988528,52377,331651,301679
1630678988538,52372,331711,301677
1630678988548,52386,331713,301653
1630678988558,52389,331742,301700
1630678988568,52401,331703,301687
1630678988578,52402,331755,301721
1630678988588,52411,331687,301716
1630678988598,52398,331710,301751
1630678988608,52409,331724,301789
1630678988618,52406,331756,301813
1630678988628,52441,331767,301792
1630678988638,52418,331781,301814
1630678988648,52439,331789,301825
1630678988658,52452,331808,301825
1630678988668,52469,331798,301874
1630678988678,52494,331841,301895
1630678988688,52511,331834,301916
1630678988698,52526,331852,301972
1630678988708,52541,331924,301996
1630678988718,52563,331932,301965
1630678988728,52590,331892,302059
1630678988738,52624,331940,302059
1630678988748,52645,331946,302123
1630678988758,52646,331952,302093
1630678988768,52678,332021,302096
1630678988778,52695,332038,302173
1630678988788,52725,332085,302182
1630678988798,52775,332142,302260
1630678988808,52816,332125,302324
1630678988818,52851,332163,302387
1630678988828,52866,332219,302419
1630678988838,52881,332273,302480
1630678988848,52930,332228,302480
1630678988858,52974,332300,302547
1630678988868,52989,332287,302568
1630678988878,53010,332320,302574
1630678988888,53055,332352,302560
1630678988898,53066,332378,302599
1630678988908,53070,332374,302604
1630678988918,53099,332359,302548
1630678988928,53105,332365,302584
1630678988938,53116,332393,302583
1630678988948,53141,332374,302555
1630678988958,53162,332481,302573
1630678988968,53174,332450,302617
1630678988978,53207,332462,302632
1630678988988,53227,332531,302644
1630678988998,53261,332555,302685
1630678989008,53299,332573,302703
1630678989018,53323,332623,302765
1630678989028,53349,332699,302792
1630678989038,53380,332761,302806
1630678989048,53412,332777,302865
1630678989058,53432,332750,302866
1630678989068,53475,332816,302904
1630678989078,53520,332839,302905
1630678989088,53547,332840,302949
1630678989098,53591,332898,303002
1630678989108,53609,332928,303019
1630678989118,53647,332972,303005
1630678989128,53672,332962,303030
1630678989138,53698,332988,303050
1630678989148,53729,333018,303087
1630678989158,53781,333027,303107
1630678989168,53815,333094,303135
1630678989178,53842,333057,303165
1630678989188,53873,333040,303152
1630678989198,53895,333064,303207
1630678989208,53914,333034,303268
1630678989218,53920,333063,303291
1630678989228,53934,333067,303330
1630678989238,53944,333059,303370
1630678989248,53960,333064,303381
1630678989258,53963,333068,303348
1630678989268,53956,333062,303413
1630678989278,53959,333072,303403
1630678989288,53967,333027,303370
1630678989298,53985,333082,303413
1630678989308,53981,333054,303424
1630678989318,53957,333034,303384
1630678989328,53947,332989,303354
1630678989338,53940,332988,303301
1630678989348,53927,332915,303269
1630678989358,53911,332910,303239
1630678989368,53910,332896,303246
1630678989378,53938,332880,303234
1630678989388,53939,332837,303140
1630678989398,53955,332860,303114
1630678989408,53961,332804,303122
1630678989418,53983,332809,303117
1630678989428,53996,332805,303054
1630678989438,54038,332774,303095
1630678989448,54060,332825,303099
1630678989458,54097,332811,303132
1630678989468,54124,332846,303121
1630678989478,54162,332878,303169
1630678989488,54177,332918,303181
1630678989498,54180,332911,303178
1630678989508,54172,332907,303184
1630678989518,54171,333001,303217
1630678989528,54158,333000,303213
1630678989538,54158,333034,303224
1630678989548,54152,333009,303243
1630678989558,54167,333095,303220
1630678989568,54194,333050,303231
1630678989578,54193,333147,303243
1630678989588,54218,333189,303249
1630678989598,54231,333236,303235
1630678989608,54247,333211,303295
1630678989618,54271,333239,303276
1630678989628,54291,333225,303267
1630678989638,54303,333271,303279
1630678989648,54338,333345,303287
1630678989658,54343,333305,303273
1630678989668,54359,333308,303290
1630678989678,54372,333341,303281
1630678989688,54398,333398,303267
1630678989698,54404,333390,303288
1630678989708,54415,333426,303250
1630678989718,54441,333449,303287
1630678989728,54466,333486,303316
1630678989738,54479,333447,303325
1630678989748,54502,333502,303341
1630678989758,54527,333590,303343
1630678989768,54545,333553,303361
1630678989778,54586,333626,303383
1630678989788,54607,333598,303396
1630678989798,54621,333641,303400
1630678989808,54637,333641,303385
1630678989818,54670,333709,303412
1630678989828,54671,333716,303387
1630678989838,54689,333734,303412
1630678989848,54708,333722,303387
1630678989858,54745,333726,303446
1630678989868,54760,333783,303421
1630678989878,54778,333810,303424
1630678989888,54814,333790,303420
1630678989898,54829,333824,303445
1630678989908,54859,333897,303447
1630678989918,54884,333882,303464
1630678989928,54916,333884,303525
1630678989938,54937,333909,303532
1630678989948,54955,333868,303495
1630678989958,54967,333879,303519
1630678989968,54977,333890,303553
1630678989978,54994,333858,303572
1630678989988,55012,333820,303576
1630678989998,55021,333902,303578
1630678990008,55022,333904,303528
1630678990018,55023,333929,303545
1630678990028,55031,333848,303580
1630678990038,55032,333860,303532
1630678990048,55037,333874,303545
1630678990058,55051,333915,303541
1630678990068,55042,333889,303512
1630678990078,55043,333828,303488
1630678990088,55047,333830,303496
1630678990098,55045,333833,303501
1630678990108,55048,333851,303468
1630678990118,55037,333859,303454
1630678990128,55054,333833,303417
1630678990138,55056,333864,303410
1630678990148,55061,333876,303422
1630678990158,55054,333915,303426
1630678990168,55060,333903,303443
1630678990178,55064,333915,303413
1630678990188,55077,333889,303401
1630678990198,55083,333885,303409
1630678990208,55097,333884,303398
1630678990218,55101,333942,303388
1630678990228,55100,333956,303380
1630678990238,55114,333915,303367
1630678990248,55103,333952,303333
1630678990258,55112,333940,303327
1630678990268,55112,333925,303340
1630678990278,55123,333940,303302
1630678990288,55122,333942,303312
1630678990298,55132,333930,303295
1630678990308,55148,333975,303303
1630678990318,55145,333974,303294
1630678990328,55145,333975,303294
1630678990338,55154,333910,303266
1630678990348,55174,334037,303284
1630678990358,55181,333993,303269
1630678990368,55186,334032,303259
1630678990378,55198,334025,303248
1630678990388,55204,334039,303214
1630678990398,55202,334037,303244
1630678990408,55216,334040,303244
1630678990418,55221,334023,303199
1630678990428,55233,334103,303207
1630678990438,55242,334077,303245
1630678990448,55251,334126,303210
1630678990458,55264,334103,303197
1630678990468,55277,334134,303211
1630678990478,55279,334134,303207
1630678990488,55291,334197,303175
1630678990498,55308,334181,303183
1630678990508,55328,334151,303204
1630678990518,55311,334177,303183
1630678990528,55345,334185,303206
1630678990538,55348,334227,303193
1630678990548,55363,334218,303183
1630678990558,55368,334259,303180
1630678990568,55373,334293,303223
1630678990578,55394,334302,303185
1630678990588,55405,334294,303196
1630678990598,55424,334289,303181
1630678990608,55437,334342,303180
1630678990618,55444,334329,303185
1630678990628,55453,334385,303190
1630678990638,55471,334341,303198
1630678990648,55483,334312,303174
1630678990658,55497,334373,303215
1630678990668,55511,334329,303229
1630678990678,55530,334347,303208
1630678990688,55539,334312,303234
1630678990698,55536,334295,303252
1630678990708,55545,334267,303188
1630678990718,55534,334254,303223
1630678990728,55528,334247,303201
1630678990738,55519,334209,303201
1630678990748,55518,334286,303150
1630678990758,55520,334257,303162
1630678990768,55509,334252,303127
1630678990778,55515,334197,303106
1630678990788,55493,334206,303098
1630678990798,55491,334171,303060
1630678990808,55484,334204,303105
1630678990818,55472,334153,303064
1630678990828,55477,334134,303027
1630678990838,55473,334099,303016
1630678990848,55469,334140,303003
1630678990858,55447,334114,302988
1630678990868,55441,334103,302945
1630678990878,55442,334170,302957
1630678990888,55446,334112,302928
1630678990898,55446,334089,302972
1630678990908,55448,334128,302917
1630678990918,55451,334068,302960
1630678990928,55448,334067,302942
1630678990938,55445,334089,302895
1630678990948,55451,334125,302914
1630678990958,55453,334108,302943
1630678990968,55445,334104,302933
1630678990978,55449,334108,302919
1630678990988,55448,334115,302938
1630678990998,55457,334076,302905
1630678991008,55451,334111,302920
1630678991018,55449,334069,302898
1630678991028,55468,334094,302900
1630678991038,55456,334095,302895
1630678991048,55461,334095,302900
1630678991058,55459,334054,302912
1630678991068,55459,334056,302890
1630678991078,55466,334064,302879
1630678991088,55468,334093,302873
1630678991098,55471,334111,302883
1630678991108,55480,334136,302864
1630678991118,55475,334105,302904
1630678991128,55469,334132,302864
1630678991138,55470,334121,302864
1630678991148,55477,334150,302827
1630678991158,55490,334171,302865
1630678991168,55482,334126,302848
1630678991178,55486,334097,302841
1630678991188,55489,334136,302830
1630678991198,55483,334174,302829
1630678991208,55493,334166,302817
1630678991218,55496,334160,302818
1630678991228,55502,334173,302820
1630678991238,55526,334198,302834
1630678991248,55521,334191,302849
1630678991258,55512,334210,302817
1630678991268,55529,334234,302802
1630678991278,55527,334265,302830
1630678991288,55534,334290,302845
1630678991298,55546,334218,302812
1630678991308,55551,334218,302829
1630678991318,55579,334183,302858
1630678991328,55581,334190,302809
1630678991338,55564,334147,302806
1630678991348,55555,334113,302835
1630678991358,55551,334088,302843
1630678991368,55529,334061,302815
1630678991378,55511,334040,302797
1630678991388,55496,334020,302812
1630678991398,55486,334011,302802
1630678991408,55462,333980,302800
1630678991418,55444,333954,302768
1630678991428,55424,333960,302761
1630678991438,55406,333880,302758
1630678991448,55379,333918,302730
1630678991458,55355,333819,302749
1630678991468,55338,333814,302729
1630678991478,55309,333764,302728
1630678991488,55304,333782,302717
1630678991498,55284,333792,302673
1630678991508,55258,333740,302661
1630678991518,55238,333689,302656
1630678991528,55200,333703,302640
1630678991538,55186,333718,302618
1630678991548,55168,333665,302604
1630678991558,55153,333640,302594
1630678991568,55133,333633,302593
1630678991578,55125,333612,302595
1630678991588,55116,333639,302570
1630678991598,55104,333633,302580
1630678991608,55071,333585,302574
1630678991618,55071,333538,302534
1630678991628,55051,333572,302594
1630678991638,55033,333509,302591
1630678991648,55033,333492,302561
1630678991658,55017,333521,302561
1630678991668,55000,333528,302571
1630678991678,54999,333514,302543
1630678991688,54982,333481,302590
1630678991698,54966,333522,302578
1630678991708,54961,333447,302578
1630678991718,54948,333499,302594
1630678991728,54953,333494,302570
1630678991738,54943,333480,302597
1630678991748,54937,333523,302606
1630678991758,54939,333470,302612
1630678991768,54927,333456,302590
1630678991778,54920,333475,302639
1630678991788,54934,333465,302647
1630678991798,54934,333471,302636
1630678991808,54932,333502,302673
1630678991818,54911,333518,302639
1630678991828,54919,333511,302677
1630678991838,54914,333547,302665
1630678991848,54913,333571,302644
1630678991858,54932,333524,302726
1630678991868,54937,333531,302701
1630678991878,54942,333556,302688
1630678991888,54950,333558,302725
1630678991898,54947,333578,302737
1630678991908,54948,333545,302730
1630678991918,54952,333595,302748
1630678991928,54963,333560,302758
1630678991938,54960,333574,302808
1630678991948,54969,333552,302791
1630678991958,54965,333523,302813
1630678991968,54971,333450,302829
1630678991978,54969,333405,302890
1630678991988,54939,333430,302847
1630678991998,54915,333403,302846
1630678992008,54890,333329,302878
1630678992018,54849,333276,302897
1630678992028,54826,333254,302912
1630678992038,54797,333201,302943
1630678992048,54766,333170,302973
1630678992058,54752,333157,302965
1630678992068,54703,333089,302947
1630678992078,54668,332995,302951
1630678992088,54634,333000,302932
1630678992098,54590,332929,302933
1630678992108,54563,332917,302897
1630678992118,54521,332798,302876
1630678992128,54482,332736,302841
1630678992138,54452,332749,302880
1630678992148,54409,332678,302892
1630678992158,54392,332675,302883
1630678992168,54371,332683,302897
1630678992178,54339,332639,302888
1630678992188,54320,332610,302905
1630678992198,54315,332599,302917
1630678992208,54305,332589,302992
1630678992218,54286,332558,303043
1630678992228,54283,332571,303082
1630678992238,54268,332600,303071
1630678992248,54253,332540,303139
1630678992258,54237,332504,303148
1630678992268,54228,332455,303187
1630678992278,54200,332445,303198
1630678992288,54194,332422,303204
1630678992298,54177,332362,303250
1630678992308,54149,332358,303278
1630678992318,54134,332264,303291
1630678992328,54112,332279,303292
1630678992338,54102,332239,303326
1630678992348,54075,332208,303306
1630678992358,54049,332175,303305
1630678992368,54030,332155,303293
1630678992378,54012,332083,303309
1630678992388,54001,332070,303333
1630678992398,53992,332055,303322
1630678992408,53955,331970,303324
1630678992418,53954,331983,303350
1630678992428,53943,332000,303342
1630678992438,53926,331962,303318
1630678992448,53919,331933,303339
1630678992458,53911,331930,303368
1630678992468,53942,331976,303367
1630678992478,53948,331938,303365
1630678992488,53943,331976,303340
1630678992498,53963,331921,303298
1630678992508,53970,331944,303315
1630678992518,53971,331953,303279
1630678992528,53978,331941,303241
1630678992538,53965,331954,303191
1630678992548,53972,331914,303155
1630678992558,53965,331944,303086
1630678992568,53962,331964,303043
1630678992578,53954,331947,302990
1630678992588,53947,331929,302901
1630678992598,53962,331970,302857
1630678992608,53954,331919,302828
1630678992618,53973,331886,302788
1630678992628,53970,331919,302744
1630678992638,53952,331884,302664
1630678992648,53945,331846,302628
1630678992658,53935,331828,302600
1630678992668,53924,331771,302586
1630678992678,53908,331760,302583
1630678992688,53872,331698,302591
1630678992698,53854,331653,302569
1630678992708,53832,331565,302562
1630678992718,53815,331535,302510
1630678992728,53780,331475,302460
1630678992738,53735,331483,302431
1630678992748,53697,331351,302376
1630678992758,53655,331311,302365
1630678992768,53607,331251,302353
1630678992778,53575,331212,302284
1630678992788,53526,331108,302289
1630678992798,53492,331102,302276
1630678992808,53445,331059,302242
1630678992818,53393,331008,302256
1630678992828,53371,330971,302256
1630678992838,53362,330922,302255
1630678992848,53359,330944,302308
1630678992858,53344,330944,302310
1630678992868,53341,330904,302358
1630678992878,53324,330925,302381
1630678992888,53315,330870,302374
1630678992898,53299,330852,302332
1630678992908,53273,330828,302366
1630678992918,53272,330799,302364
1630678992928,53258,330791,302378
1630678992938,53234,330781,302395
1630678992948,53238,330788,302365
1630678992958,53194,330743,302402
1630678992968,53186,330745,302368
1630678992978,53189,330747,302386
1630678992988,53180,330727,302420
1630678992998,53186,330773,302482
1630678993008,53182,330731,302484
1630678993018,53172,330789,302524
1630678993028,53185,330755,302507
1630678993038,53185,330785,302566
1630678993048,53192,330821,302623
1630678993058,53190,330822,302606
1630678993068,53180,330827,302641
1630678993078,53186,330891,302627
1630678993088,53176,330772,302659
1630678993098,53166,330803,302658
1630678993108,53188,330826,302651
1630678993118,53181,330848,302685
1630678993128,53178,330849,302644
1630678993138,53182,330839,302668
1630678993148,53198,330875,302690
1630678993158,53188,330877,302706
1630678993168,53192,330845,302676
1630678993178,53192,330865,302709
1630678993188,53200,330862,302706
1630678993198,53207,330907,302705
1630678993208,53209,330916,302681
1630678993218,53221,330890,302716
1630678993228,53241,330939,302742
1630678993238,53231,330965,302764
1630678993248,53245,330961,302742
1630678993258,53266,331035,302753
1630678993268,53261,330937,302742
1630678993278,53274,330981,302798
1630678993288,53278,331008,302759
1630678993298,53286,331030,302787
1630678993308,53291,330986,302770
1630678993318,53291,330895,302747
1630678993328,53266,330886,302773
1630678993338,53255,330791,302725
1630678993348,53222,330744,302720
1630678993358,53212,330719,302713
1630678993368,53191,330714,302705
1630678993378,53170,330623,302736
1630678993388,53165,330642,302715
1630678993398,53152,330652,302732
1630678993408,53140,330605,302783
1630678993418,53136,330599,302790
1630678993428,53132,330557,302728
1630678993438,53122,330536,302761
1630678993448,53108,330482,302739
1630678993458,53106,330499,302791
1630678993468,53105,330485,302763
1630678993478,53078,330454,302765
1630678993488,53076,330428,302757
1630678993498,53062,330413,302727
1630678993508,53070,330448,302752
1630678993518,53062,330426,302770
1630678993528,53071,330429,302790
1630678993538,53065,330459,302797
1630678993548,53063,330458,302768
1630678993558,53068,330491,302791
1630678993568,53082,330410,302795
1630678993578,53089,330442,302840
1630678993588,53103,330493,302859
1630678993598,53109,330490,302874
1630678993608,53119,330441,302907
1630678993618,53136,330503,302921
1630678993628,53123,330509,302941
1630678993638,53134,330607,302940
1630678993648,53147,330567,302929
1630678993658,53158,330559,302987
1630678993668,53167,330583,302990
1630678993678,53174,330513,303000
1630678993688,53183,330519,302971
1630678993698,53192,330553,302998
1630678993708,53191,330567,302978
1630678993718,53201,330544,302977
1630678993728,53205,330632,303005
1630678993738,53209,330628,303030
1630678993748,53234,330574,303010
1630678993758,53239,330622,302991
1630678993768,53251,330676,303019
1630678993778,53260,330652,303025
1630678993788,53275,330629,303055
1630678993798,53288,330624,303041
1630678993808,53304,330678,303008
1630678993818,53315,330721,303039
1630678993828,53328,330735,303083
1630678993838,53341,330731,303101
1630678993848,53363,330783,303107
1630678993858,53369,330763,303073
1630678993868,53373,330769,303111
1630678993878,53391,330809,303132
1630678993888,53405,330812,303133
1630678993898,53430,330849,303143
1630678993908,53444,330872,303131
1630678993918,53454,330877,303175
1630678993928,53485,330906,303179
1630678993938,53505,330872,303242
1630678993948,53547,330909,303298
1630678993958,53552,330966,303276
1630678993968,53601,330969,303341
1630678993978,53645,331045,303384
1630678993988,53708,331053,303490
1630678993998,53760,331107,303477
1630678994008,53786,331057,303467
1630678994018,53790,331042,303491
1630678994028,53794,331048,303476
1630678994038,53779,331023,303517
1630678994048,53768,331016,303486
1630678994058,53741,330989,303460
1630678994068,53729,330962,303427
1630678994078,53700,330934,303413
1630678994088,53685,330957,303416
1630678994098,53669,330925,303413
1630678994108,53669,330933,303374
1630678994118,53646,330930,303339
1630678994128,53648,330944,303387
1630678994138,53638,330919,303382
1630678994148,53648,330934,303360
1630678994158,53654,330916,303360
1630678994168,53656,330912,303393
1630678994178,53643,330915,303381
1630678994188,53650,330903,303359
1630678994198,53669,330895,303421
1630678994208,53673,330850,303447
1630678994218,53682,330844,303484
1630678994228,53696,330846,303501
1630678994238,53730,330860,303554
1630678994248,53727,330907,303573
1630678994258,53770,330853,303602
1630678994268,53790,330849,303653
1630678994278,53803,330916,303607
1630678994288,53810,330857,303618
1630678994298,53813,330904,303599
1630678994308,53815,330937,303586
1630678994318,53813,330945,303540
1630678994328,53797,330921,303540
1630678994338,53774,330894,303472
1630678994348,53760,330911,303401
1630678994358,53723,330892,303325
1630678994368,53708,330898,303270
1630678994378,53687,330894,303224
1630678994388,53669,330839,303184
1630678994398,53649,330861,303114
1630678994408,53644,330837,303060
1630678994418,53653,330875,303016
1630678994428,53664,330838,303015
1630678994438,53682,330848,302998
1630678994448,53688,330827,303001
1630678994458,53705,330873,302983
1630678994468,53732,330908,303046
1630678994478,53770,330918,303059
1630678994488,53794,330971,303081
1630678994498,53799,330968,303067
1630678994508,53806,331037,303080
1630678994518,53827,331027,303126
1630678994528,53850,331058,303099
1630678994538,53868,331097,303138
1630678994548,53889,331106,303130
1630678994558,53920,331187,303107
1630678994568,53956,331180,303178
1630678994578,53974,331162,303156
1630678994588,53999,331225,303176
1630678994598,54006,331230,303167
1630678994608,54029,331263,303187
1630678994618,54046,331244,303189
1630678994628,54075,331307,303161
1630678994638,54089,331269,303176
1630678994648,54112,331346,303149
1630678994658,54134,331390,303141
1630678994668,54164,331387,303154
1630678994678,54186,331388,303153
1630678994688,54208,331440,303186
1630678994698,54230,331482,303194
1630678994708,54244,331507,303161
1630678994718,54265,331485,303162
1630678994728,54294,331536,303188
1630678994738,54310,331605,303187
1630678994748,54369,331579,303205
1630678994758,54394,331548,303213
1630678994768,54397,331567,303239
1630678994778,54430,331566,303244
1630678994788,54448,331561,303268
1630678994798,54464,331571,303271
1630678994808,54464,331539,303251
1630678994818,54482,331524,303303
1630678994828,54493,331598,303282
1630678994838,54491,331557,303268
1630678994848,54495,331524,303279
1630678994858,54501,331568,303279
1630678994868,54506,331620,303237
1630678994878,54517,331578,303245
1630678994888,54525,331563,303252
1630678994898,54524,331534,303235
1630678994908,54537,331609,303267
1630678994918,54548,331558,303225
1630678994928,54539,331520,303211
1630678994938,54540,331547,303202
1630678994948,54538,331543,303168
1630678994958,54551,331497,303178
1630678994968,54551,331499,303171
1630678994978,54566,331510,303142
1630678994988,54565,331556,303098
1630678994998,54569,331535,303128
1630678995008,54579,331521,303095
1630678995018,54573,331507,303076
1630678995028,54581,331525,303084
1630678995038,54592,331544,303071
1630678995048,54595,331519,303082
1630678995058,54599,331539,303052
1630678995068,54613,331556,303051
1630678995078,54621,331545,303068
1630678995088,54621,331542,303048
1630678995098,54629,331535,303045
1630678995108,54639,331584,302998
1630678995118,54659,331626,302971
1630678995128,54668,331583,303001
1630678995138,54669,331583,302982
1630678995148,54678,331627,302954
1630678995158,54694,331590,302956
1630678995168,54698,331613,302960
1630678995178,54711,331651,302937
1630678995188,54717,331604,302958
1630678995198,54724,331651,302934
1630678995208,54740,331655,302942
1630678995218,54750,331681,302929
1630678995228,54762,331652,302939
1630678995238,54771,331674,302972
1630678995248,54782,331699,302933
1630678995258,54797,331655,302905
1630678995268,54813,331685,302899
1630678995278,54824,331723,302902
1630678995288,54841,331730,302864
1630678995298,54867,331769,302886
1630678995308,54899,331799,302873
1630678995318,54913,331788,302904
1630678995328,54941,331860,302927
1630678995338,54957,331833,302917
1630678995348,54971,331874,302879
1630678995358,55004,331867,302886
1630678995368,55003,331938,302841
1630678995378,55014,331901,302863
1630678995388,55022,331865,302806
1630678995398,55040,331889,302766
1630678995408,55054,331875,302695
1630678995418,55043,331919,302651
1630678995428,55043,331878,302572
1630678995438,55036,331877,302552
1630678995448,55046,331829,302457
1630678995458,55039,331839,302403
1630678995468,55022,331838,302318
1630678995478,55027,331823,302250
1630678995488,55027,331755,302186
1630678995498,55027,331745,302094
1630678995508,55026,331728,302072
1630678995518,55034,331711,302029
1630678995528,55044,331648,301953
1630678995538,55037,331653,301932
1630678995548,55027,331641,301892
1630678995558,55041,331583,301855
1630678995568,55018,331547,301775
1630678995578,55011,331572,301732
1630678995588,55002,331524,301719
1630678995598,55011,331513,301688
1630678995608,55002,331506,301639
1630678995618,54986,331475,301609
1630678995628,54992,331436,301603
1630678995638,54991,331405,301575
1630678995648,54973,331419,301559
1630678995658,54972,331335,301549
1630678995668,54968,331341,301508
1630678995678,54954,331276,301491
1630678995688,54937,331236,301444
1630678995698,54902,331241,301386
1630678995708,54869,331189,301334
1630678995718,54825,331107,301267
1630678995728,54798,331061,301173
1630678995738,54755,330997,301142
1630678995748,54742,331004,301085
1630678995758,54713,331038,301018
1630678995768,54670,330939,300953
1630678995778,54667,330941,300910
1630678995788,54656,330957,300875
1630678995798,54635,330934,300824
1630678995808,54636,330914,300826
1630678995818,54630,330969,300815
1630678995828,54628,330908,300817
1630678995838,54631,330983,300799
1630678995848,54624,330965,300830
1630678995858,54661,330945,300783
1630678995868,54675,330955,300793
1630678995878,54669,331004,300841
1630678995888,54683,331025,300835
1630678995898,54683,330957,300794
1630678995908,54687,330983,300808
1630678995918,54702,330934,300773
1630678995928,54701,330980,300749
1630678995938,54695,330978,300749
1630678995948,54705,330936,300707
1630678995958,54698,330877,300693
1630678995968,54696,330945,300669
1630678995978,54698,330965,300670
1630678995988,54677,330892,300641
1630678995998,54650,330895,300575
1630678996008,54633,330883,300564
1630678996018,54607,330853,300494
1630678996028,54589,330840,300396
1630678996038,54554,330856,300333
1630678996048,54519,330822,300279
1630678996058,54505,330780,300239
1630678996068,54489,330778,300169
1630678996078,54481,330850,300148
1630678996088,54488,330791,300106
1630678996098,54487,330854,300083
1630678996108,54493,330834,300071
1630678996118,54497,330889,300062
1630678996128,54485,330912,300085
1630678996138,54493,330938,300070
1630678996148,54482,330922,300037
1630678996158,54483,330943,300041
1630678996168,54461,330949,299991
1630678996178,54462,330936,299971
1630678996188,54446,330871,299972
1630678996198,54407,330865,299941
1630678996208,54396,330876,299880
1630678996218,54353,330930,299831
1630678996228,54344,330848,299765
1630678996238,54314,330868,299749
1630678996248,54282,330871,299690
1630678996258,54274,330843,299682
1630678996268,54252,330782,299630
1630678996278,54242,330799,299655
1630678996288,54240,330780,299652
1630678996298,54214,330784,299623
1630678996308,54198,330757,299582
1630678996318,54194,330731,299592
1630678996328,54198,330735,299604
1630678996338,54175,330695,299603
1630678996348,54154,330663,299601
1630678996358,54155,330703,299580
1630678996368,54142,330607,299617
1630678996378,54150,330661,299611
1630678996388,54143,330699,299648
1630678996398,54142,330677,299637
1630678996408,54153,330622,299613
1630678996418,54133,330640,299684
1630678996428,54129,330569,299646
1630678996438,54107,330511,299622
1630678996448,54096,330540,299628
1630678996458,54083,330489,299627
1630678996468,54064,330481,299624
1630678996478,54047,330446,299582
1630678996488,54037,330455,299602
1630678996498,54026,330421,299572
1630678996508,54023,330417,299563
1630678996518,53999,330427,299575
1630678996528,54010,330436,299576
1630678996538,54012,330375,299638
1630678996548,54002,330400,299621
1630678996558,53995,330428,299597
1630678996568,54000,330412,299650
1630678996578,54002,330392,299663
1630678996588,53991,330377,299665
1630678996598,53983,330398,299666
1630678996608,53977,330409,299697
1630678996618,53963,330387,299680
1630678996628,53936,330349,299674
1630678996638,53924,330333,299667
1630678996648,53880,330309,299672
1630678996658,53843,330259,299640
1630678996668,53807,330193,299597
1630678996678,53741,330167,299442
1630678996688,53658,330175,299354
1630678996698,53579,330066,299241
1630678996708,53471,329982,299076
1630678996718,53381,329906,298945
1630678996728,53287,329873,298788
1630678996738,53221,329839,298668
1630678996748,53158,329772,298587
1630678996758,53109,329760,298533
1630678996768,53052,329703,298449
1630678996778,53023,329709,298406
1630678996788,53003,329786,298438
1630678996798,52991,329781,298486
1630678996808,52986,329825,298543
1630678996818,52993,329931,298612
1630678996828,52995,329979,298694
1630678996838,53010,330030,298698
1630678996848,53044,330076,298810
1630678996858,53060,330111,298924
1630678996868,53116,330195,299017
1630678996878,53167,330223,299130
1630678996888,53222,330318,299228
1630678996898,53277,330277,299335
1630678996908,53340,330391,299412
1630678996918,53392,330423,299471
1630678996928,53442,330477,299516
1630678996938,53488,330462,299590
1630678996948,53534,330525,299664
1630678996958,53575,330618,299710
1630678996968,53611,330626,299769
1630678996978,53658,330635,299823
1630678996988,53675,330677,299876
1630678996998,53711,330754,300005
1630678997008,53763,330805,300074
1630678997018,53812,330789,300145
1630678997028,53871,330811,300258
1630678997038,53923,330805,300345
1630678997048,53922,330864,300441
1630678997058,53933,330830,300464
1630678997068,53923,330805,300516
1630678997078,53914,330855,300550
1630678997088,53882,330794,300537
1630678997098,53862,330802,300542
1630678997108,53828,330771,300529
1630678997118,53784,330710,300532
1630678997128,53736,330686,300513
1630678997138,53699,330655,300463
1630678997148,53643,330571,300411
1630678997158,53605,330527,300349
1630678997168,53534,330395,300292
1630678997178,53448,330329,300224
1630678997188,53359,330161,300120
1630678997198,53267,330099,300039
1630678997208,53162,330005,299929
1630678997218,53042,329875,299798
1630678997228,52947,329791,299661
1630678997238,52838,329727,299534
1630678997248,52722,329671,299393
1630678997258,52612,329555,299262
1630678997268,52488,329523,299095
1630678997278,52381,329454,298944
1630678997288,52279,329416,298785
1630678997298,52197,329411,298722
1630678997308,52094,329388,298611
1630678997318,52013,329311,298467
1630678997328,51881,329211,298301
1630678997338,51727,329160,298113
1630678997348,51585,329107,297957
1630678997358,51454,328980,297761
1630678997368,51301,328942,297565
1630678997378,51164,328863,297382
1630678997388,51028,328771,297256
1630678997398,50905,328707,297194
1630678997408,50822,328701,297031
1630678997418,50731,328623,297014
1630678997428,50667,328620,296935
1630678997438,50618,328586,296969
1630678997448,50598,328629,296997
1630678997458,50597,328646,297028
1630678997468,50628,328718,297104
1630678997478,50661,328759,297203
1630678997488,50643,328761,297280
1630678997498,50655,328835,297332
1630678997508,50664,328903,297367
1630678997518,50637,328933,297393
1630678997528,50609,328936,297458
1630678997538,50581,328927,297442
1630678997548,50522,329001,297429
1630678997558,50483,328978,297408
1630678997568,50433,329003,297391
1630678997578,50403,328976,297345
1630678997588,50361,328984,297335
1630678997598,50305,328955,297323
1630678997608,50239,328924,297248
1630678997618,50178,328885,297176
1630678997628,50111,328846,297132
1630678997638,50074,328813,297098
1630678997648,50011,328813,297096
1630678997658,49972,328780,297022
1630678997668,49912,328778,296938
1630678997678,49853,328738,296925
1630678997688,49818,328739,296896
1630678997698,49772,328745,296855
1630678997708,49705,328673,296812
1630678997718,49628,328592,296708
1630678997728,49532,328548,296607
1630678997738,49435,328419,296468
1630678997748,49324,328354,296374
1630678997758,49200,328241,296253
1630678997768,49079,328097,296154
1630678997778,48958,328009,296035
1630678997788,48859,327892,295936
1630678997798,48768,327833,295874
1630678997808,48710,327785,295856
1630678997818,48630,327731,295793
1630678997828,48548,327627,295707
1630678997838,48470,327608,295647
1630678997848,48444,327534,295651
1630678997858,48409,327562,295632
1630678997868,48375,327501,295617
1630678997878,48328,327469,295624
1630678997888,48279,327460,295560
1630678997898,48217,327417,295534
1630678997908,48168,327340,295515
1630678997918,48111,327290,295458
1630678997928,48061,327304,295431
1630678997938,48019,327307,295446
1630678997948,48044,327269,295478
1630678997958,48110,327373,295662
1630678997968,48220,327414,295828
1630678997978,48383,327543,296097
1630678997988,48578,327716,296399
1630678997998,48782,327848,296657
1630678998008,48934,327926,296791
1630678998018,49107,327968,296931
1630678998028,49268,328051,297047
1630678998038,49344,328027,297076
1630678998048,49422,328071,297120
1630678998058,49498,328050,297179
1630678998068,49558,328037,297247
1630678998078,49600,328074,297297
1630678998088,49630,328099,297310
1630678998098,49630,328134,297360
1630678998108,49628,328148,297361
1630678998118,49631,328151,297302
1630678998128,49617,328155,297304
1630678998138,49590,328149,297315
1630678998148,49601,328146,297276
1630678998158,49593,328164,297292
1630678998168,49590,328147,297304
1630678998178,49588,328196,297338
1630678998188,49622,328221,297383
1630678998198,49656,328299,297420
1630678998208,49681,328346,297483
1630678998218,49701,328398,297534
1630678998228,49710,328374,297541
1630678998238,49713,328424,297600
1630678998248,49714,328417,297577
1630678998258,49705,328431,297595
1630678998268,49705,328417,297590
1630678998278,49714,328436,297578
1630678998288,49718,328472,297615
1630678998298,49734,328468,297614
1630678998308,49756,328506,297636
1630678998318,49777,328528,297633
1630678998328,49801,328547,297638
1630678998338,49815,328560,297700
1630678998348,49835,328583,297726
1630678998358,49853,328609,297813
1630678998368,49876,328648,297789
1630678998378,49893,328701,297795
1630678998388,49915,328711,297837
1630678998398,49940,328770,297862
1630678998408,49971,328744,297902
1630678998418,49984,328741,297958
1630678998428,49977,328762,297969
1630678998438,49993,328695,297968
1630678998448,49982,328662,297991
1630678998458,49963,328670,298014
1630678998468,49930,328669,298000
1630678998478,49929,328654,297971
1630678998488,49909,328612,297997
1630678998498,49896,328572,298007
1630678998508,49890,328593,298029
1630678998518,49875,328565,298020
1630678998528,49871,328564,298038
1630678998538,49870,328533,298023
1630678998548,49872,328556,298070
1630678998558,49863,328505,298092
1630678998568,49862,328523,298070
1630678998578,49863,328531,298105
1630678998588,49866,328506,298125
1630678998598,49868,328565,298138
1630678998608,49868,328509,298141
1630678998618,49865,328581,298207
1630678998628,49873,328603,298221
1630678998638,49859,328606,298222
1630678998648,49869,328622,298267
1630678998658,49870,328648,298227
1630678998668,49882,328706,298282
1630678998678,49881,328736,298335
1630678998688,49898,328724,298343
1630678998698,49899,328773,298384
1630678998708,49912,328752,298368
1630678998718,49925,328839,298413
1630678998728,49938,328795,298456
1630678998738,49951,328880,298487
1630678998748,49949,328862,298479
1630678998758,49977,328839,298486
1630678998768,49978,328913,298488
1630678998778,50006,328918,298464
1630678998788,50014,328901,298549
1630678998798,50017,328961,298536
1630678998808,50023,328992,298574
1630678998818,50039,328985,298572
1630678998828,50037,328996,298579
1630678998838,50047,329056,298574
1630678998848,50055,329067,298560
1630678998858,50057,329068,298580
1630678998868,50073,329075,298569
1630678998878,50096,329097,298572
1630678998888,50098,329109,298538
1630678998898,50114,329107,298579
1630678998908,50139,329158,298559
1630678998918,50153,329155,298558
1630678998928,50159,329182,298577
1630678998938,50184,329255,298632
1630678998948,50206,329257,298658
1630678998958,50218,329292,298623
1630678998968,50251,329311,298669
1630678998978,50264,329330,298687
1630678998988,50294,329327,298669
1630678998998,50300,329386,298665
1630678999008,50331,329406,298704
1630678999018,50354,329470,298706
1630678999028,50380,329507,298748
1630678999038,50394,329533,298733
1630678999048,50405,329586,298736
1630678999058,50431,329604,298736
1630678999068,50451,329596,298762
1630678999078,50490,329633,298806
1630678999088,50536,329667,298821
1630678999098,50565,329669,298842
1630678999108,50590,329670,298891
1630678999118,50608,329643,298937
1630678999128,50644,329669,298984
1630678999138,50649,329695,299008
1630678999148,50668,329656,299043
1630678999158,50683,329651,299063
1630678999168,50703,329691,299130
1630678999178,50715,329714,299173
1630678999188,50754,329713,299215
1630678999198,50782,329791,299268
1630678999208,50816,329732,299302
1630678999218,50848,329787,299331
1630678999228,50879,329823,299399
1630678999238,50915,329829,299430
1630678999248,50965,329887,299508
1630678999258,50993,329912,299588
1630678999268,51038,329927,299565
1630678999278,51070,329986,299625
1630678999288,51101,329971,299634
1630678999298,51121,329985,299645
1630678999308,51156,330012,299653
1630678999318,51184,330041,299676
1630678999328,51193,330045,299678
1630678999338,51229,330053,299668
1630678999348,51251,330024,299636
1630678999358,51270,330084,299640
1630678999368,51294,330059,299664
1630678999378,51304,330057,299655
1630678999388,51328,330066,299664
1630678999398,51361,330089,299662
1630678999408,51383,330114,299650
1630678999418,51421,330121,299669
1630678999428,51453,330164,299673
1630678999438,51491,330190,299673
1630678999448,51514,330189,299701
1630678999458,51549,330230,299711
1630678999468,51582,330251,299728
1630678999478,51608,330298,299737
1630678999488,51653,330323,299742
1630678999498,51687,330317,299757
1630678999508,51721,330337,299742
1630678999518,51727,330377,299759
1630678999528,51752,330428,299742
1630678999538,51773,330437,299759
1630678999548,51792,330392,299746
1630678999558,51801,330430,299742
1630678999568,51830,330433,299710
1630678999578,51837,330426,299738
1630678999588,51868,330460,299733
1630678999598,51893,330487,299703
1630678999608,51905,330555,299733
1630678999618,51932,330538,299746
1630678999628,51952,330562,299736
1630678999638,51976,330595,299756
1630678999648,52004,330602,299733
1630678999658,52028,330677,299758
1630678999668,52055,330677,299771
1630678999678,52081,330683,299755
1630678999688,52096,330722,299790
1630678999698,52122,330800,299805
1630678999708,52147,330755,299796
1630678999718,52178,330750,299801
1630678999728,52196,330758,299765
1630678999738,52228,330754,299771
1630678999748,52234,330733,299776
1630678999758,52249,330705,299737
1630678999768,52252,330727,299769
1630678999778,52280,330684,299750
1630678999788,52270,330700,299785
1630678999798,52286,330638,299784
1630678999808,52300,330657,299748
1630678999818,52301,330635,299718
1630678999828,52311,330649,299714
1630678999838,52296,330655,299675
1630678999848,52291,330594,299646
1630678999858,52293,330626,299616
1630678999868,52298,330574,299631
1630678999878,52290,330569,299626
1630678999888,52285,330537,299579
1630678999898,52294,330507,299579
1630678999908,52289,330535,299575
1630678999918,52273,330484,299537
1630678999928,52271,330453,299506
1630678999938,52264,330425,299444
1630678999948,52261,330389,299452
1630678999958,52258,330359,299432
1630678999968,52280,330361,299395
1630678999978,52294,330345,299355
1630678999988,52307,330348,299381
1630678999998,52339,330336,299414
1630679000008,52353,330341,299433
1630679000018,52381,330328,299442
1630679000028,52403,330331,299473
1630679000038,52432,330439,299485
1630679000048,52461,330432,299506
1630679000058,52504,330444,299546
1630679000068,52532,330454,299613
1630679000078,52558,330464,299624
1630679000088,52599,330516,299644
1630679000098,52629,330490,299620
1630679000108,52642,330495,299646
1630679000118,52667,330487,299626
1630679000128,52692,330479,299638
1630679000138,52714,330501,299642
1630679000148,52736,330517,299618
1630679000158,52769,330523,299633
1630679000168,52806,330538,299646
1630679000178,52838,330558,299645
1630679000188,52887,330603,299689
1630679000198,52949,330661,299734
1630679000208,53007,330760,299784
1630679000218,53081,330850,299853
1630679000228,53127,330892,299926
1630679000238,53198,330926,299997
1630679000248,53223,331081,300013
1630679000258,53288,331122,300024
1630679000268,53324,331161,300081
1630679000278,53352,331179,300117
1630679000288,53380,331176,300103
1630679000298,53406,331209,300109
1630679000308,53426,331176,300122
1630679000318,53453,331205,300068
1630679000328,53467,331180,300076
1630679000338,53479,331150,300051
1630679000348,53476,331120,300000
1630679000358,53483,331044,299951
1630679000368,53483,331052,299968
1630679000378,53530,331019,299968
1630679000388,53517,330994,299970
1630679000398,53511,331028,299955
1630679000408,53524,330953,299912
1630679000418,53534,330957,299924
1630679000428,53530,331017,299886
1630679000438,53522,330876,299876
1630679000448,53525,330871,299847
1630679000458,53526,330860,299794
1630679000468,53524,330835,299795
1630679000478,53522,330806,299732
1630679000488,53515,330767,299714
1630679000498,53498,330708,299704
1630679000508,53491,330684,299647
1630679000518,53479,330701,299613
1630679000528,53471,330623,299600
1630679000538,53482,330610,299586
1630679000548,53459,330580,299572
1630679000558,53437,330608,299495
1630679000568,53420,330545,299455
1630679000578,53421,330560,299409
1630679000588,53402,330522,299387
1630679000598,53385,330472,299382
1630679000608,53397,330481,299373
1630679000618,53387,330472,299317
1630679000628,53401,330455,299316
1630679000638,53396,330457,299318
1630679000648,53391,330457,299274
1630679000658,53391,330453,299280
1630679000668,53389,330445,299249
1630679000678,53376,330475,299240
1630679000688,53380,330463,299234
1630679000698,53378,330424,299192
1630679000708,53387,330437,299183
1630679000718,53389,330444,299209
1630679000728,53379,330450,299156
1630679000738,53362,330450,299202
1630679000748,53380,330436,299134
1630679000758,53363,330462,299110
1630679000768,53365,330430,299084
1630679000778,53366,330435,299089
1630679000788,53366,330426,299113
1630679000798,53352,330421,299090
1630679000808,53364,330429,299061
1630679000818,53370,330484,299050
1630679000828,53362,330463,299065
1630679000838,53366,330473,299043
1630679000848,53366,330468,299031
1630679000858,53367,330472,299018
1630679000868,53382,330489,299014
1630679000878,53387,330486,299007
1630679000888,53390,330540,298996
1630679000898,53367,330550,298984
1630679000908,53380,330531,298965
1630679000918,53366,330560,298935
1630679000928,53342,330526,298888
1630679000938,53335,330530,298839
1630679000948,53330,330475,298790
1630679000958,53305,330525,298744
1630679000968,53285,330439,298698
1630679000978,53291,330472,298641
1630679000988,53294,330476,298641
1630679000998,53287,330448,298615
1630679001008,53293,330388,298575
1630679001018,53301,330397,298573
1630679001028,53306,330410,298558
1630679001038,53317,330404,298567
1630679001048,53327,330400,298610
1630679001058,53355,330360,298646
1630679001068,53380,330453,298708
1630679001078,53425,330447,298796
1630679001088,53480,330518,298888
1630679001098,53528,330533,298995
1630679001108,53595,330522,299095
1630679001118,53638,330591,299140
1630679001128,53693,330619,299236
1630679001138,53739,330573,299316
1630679001148,53769,330590,299320
1630679001158,53789,330564,299358
1630679001168,53799,330568,299377
1630679001178,53809,330507,299370
1630679001188,53821,330511,299374
1630679001198,53822,330493,299399
1630679001208,53847,330453,299367
1630679001218,53854,330436,299371
1630679001228,53842,330457,299357
1630679001238,53823,330387,299291
1630679001248,53814,330392,299284
1630679001258,53800,330341,299190
1630679001268,53790,330353,299143
