timestamp,green,ir,red
1630678967000,39652,210595,177133
1630678967010,39618,210533,177090
1630678967020,39617,210538,177076
1630678967030,39616,210468,177022
1630678967040,39614,210466,177026
1630678967050,39610,210438,176995
1630678967060,39601,210409,176983
1630678967070,39604,210417,176965
1630678967080,39602,210377,176955
1630678967090,39602,210390,176954
1630678967100,39597,210418,176999
1630678967110,39587,210427,177004
1630678967120,39572,210415,176998
1630678967130,39570,210357,177002
1630678967140,39551,210365,176937
1630678967150,39524,210301,176966
1630678967160,39510,210265,176937
1630678967170,39493,210274,176959
1630678967180,39479,210250,176973
1630678967190,39459,210246,176961
1630678967200,39439,210203,176930
1630678967210,39417,210201,176955
1630678967220,39410,210161,176948
1630678967230,39384,210141,176932
1630678967240,39377,210120,176959
1630678967250,39348,210126,176963
1630678967260,39340,210128,176985
1630678967270,39308,210091,176980
1630678967280,39294,210127,176978
1630678967290,39275,210129,177006
1630678967300,39278,210134,177019
1630678967310,39246,210128,177020
1630678967320,39230,210149,177032
1630678967330,39201,210183,177034
1630678967340,39197,210201,177022
1630678967350,39177,210219,177036
1630678967360,39159,210220,177051
1630678967370,39133,210301,177059
1630678967380,39118,210366,177063
1630678967390,39094,210413,177064
1630678967400,39083,210491,177045
1630678967410,39063,210572,177083
1630678967420,39053,210645,177068
1630678967430,39040,210682,177075
1630678967440,39032,210722,177043
1630678967450,39033,210746,176960
1630678967460,39034,210669,176982
1630678967470,39025,210664,176946
1630678967480,39017,210596,176880
1630678967490,39015,210556,176859
1630678967500,39017,210535,176850
1630678967510,39007,210509,176840
1630678967520,39006,210499,176832
1630678967530,39002,210499,176864
1630678967540,38995,210478,176905
1630678967550,38976,210388,176870
1630678967560,38963,210349,176896
1630678967570,38949,210324,176909
1630678967580,38935,210294,176915
1630678967590,38921,210356,176933
1630678967600,38911,210320,176964
1630678967610,38902,210328,176963
1630678967620,38885,210255,176944
1630678967630,38864,210217,176905
1630678967640,38859,210160,176880
1630678967650,38824,210071,176807
1630678967660,38797,209963,176796
1630678967670,38775,209897,176753
1630678967680,38752,209842,176703
1630678967690,38718,209744,176694
1630678967700,38694,209729,176623
1630678967710,38675,209668,176596
1630678967720,38649,209574,176578
1630678967730,38600,209494,176538
1630678967740,38541,209406,176501
1630678967750,38495,209341,176515
1630678967760,38447,209289,176515
1630678967770,38395,209297,176466
1630678967780,38362,209164,176417
1630678967790,38304,209049,176326
1630678967800,38244,208929,176250
1630678967810,38196,208844,176216
1630678967820,38142,208790,176155
1630678967830,38110,208683,176114
1630678967840,38070,208624,176088
1630678967850,38036,208523,176051
1630678967860,38004,208449,175984
1630678967870,37958,208406,175929
1630678967880,37919,208319,175897
1630678967890,37885,208294,175889
1630678967900,37852,208257,175873
1630678967910,37830,208232,175854
1630678967920,37798,208153,175825
1630678967930,37787,208137,175767
1630678967940,37765,208077,175725
1630678967950,37736,208020,175737
1630678967960,37705,208011,175720
1630678967970,37685,207958,175680
1630678967980,37676,207962,175650
1630678967990,37673,207929,175618
1630678968000,37653,207876,175594
1630678968010,37644,207801,175570
1630678968020,37628,207780,175530
1630678968030,37614,207688,175502
1630678968040,37599,207623,175454
1630678968050,37587,207569,175433
1630678968060,37586,207521,175402
1630678968070,37581,207482,175344
1630678968080,37560,207445,175300
1630678968090,37556,207390,175286
1630678968100,37552,207419,175255
1630678968110,37554,207345,175212
1630678968120,37547,207280,175159
1630678968130,37556,207265,175159
1630678968140,37537,207254,175175
1630678968150,37559,207245,175147
1630678968160,37563,207235,175163
1630678968170,37563,207219,175159
1630678968180,37569,207225,175165
1630678968190,37571,207226,175191
1630678968200,37580,207226,175151
1630678968210,37581,207223,175172
1630678968220,37585,207203,175182
1630678968230,37594,207195,175169
1630678968240,37608,207179,175195
1630678968250,37617,207199,175197
1630678968260,37647,207205,175206
1630678968270,37668,207163,175230
1630678968280,37670,207180,175248
1630678968290,37682,207177,175276
1630678968300,37683,207191,175270
1630678968310,37693,207196,175253
1630678968320,37707,207177,175275
1630678968330,37723,207232,175294
1630678968340,37724,207231,175310
1630678968350,37738,207263,175307
1630678968360,37738,207250,175369
1630678968370,37752,207309,175385
1630678968380,37756,207308,175450
1630678968390,37747,207338,175471
1630678968400,37729,207333,175522
1630678968410,37701,207288,175495
1630678968420,37679,207258,175518
1630678968430,37642,207230,175517
1630678968440,37638,207206,175533
1630678968450,37605,207175,175548
1630678968460,37594,207154,175551
1630678968470,37575,207102,175541
1630678968480,37565,207059,175535
1630678968490,37560,207071,175504
1630678968500,37560,206998,175550
1630678968510,37568,207062,175556
1630678968520,37570,207076,175573
1630678968530,37583,207010,175586
1630678968540,37576,206989,175575
1630678968550,37567,206931,175550
1630678968560,37580,206910,175574
1630678968570,37582,206886,175613
1630678968580,37583,206833,175622
1630678968590,37597,206864,175657
1630678968600,37604,206867,175687
1630678968610,37614,206851,175708
1630678968620,37624,206832,175749
1630678968630,37624,206868,175770
1630678968640,37633,206822,175749
1630678968650,37645,206844,175744
1630678968660,37641,206842,175774
1630678968670,37647,206927,175797
1630678968680,37648,206919,175836
1630678968690,37662,207056,175940
1630678968700,37671,207094,175989
1630678968710,37679,207157,176023
1630678968720,37695,207241,176082
1630678968730,37713,207264,176106
1630678968740,37717,207277,176110
1630678968750,37706,207210,176074
1630678968760,37693,207129,175960
1630678968770,37689,207042,175930
1630678968780,37680,206916,175860
1630678968790,37680,206805,175763
1630678968800,37680,206654,175704
1630678968810,37680,206567,175628
1630678968820,37687,206380,175526
1630678968830,37675,206213,175441
1630678968840,37675,205989,175334
1630678968850,37668,205803,175229
1630678968860,37665,205588,175131
1630678968870,37650,205478,175072
1630678968880,37646,205369,175032
1630678968890,37645,205323,175041
1630678968900,37645,205316,175030
1630678968910,37655,205291,175043
1630678968920,37659,205307,175046
1630678968930,37663,205285,175031
1630678968940,37662,205286,175078
1630678968950,37679,205351,175085
1630678968960,37688,205357,175110
1630678968970,37684,205346,175091
1630678968980,37701,205361,175106
1630678968990,37707,205273,175039
1630678969000,37714,205220,174983
1630678969010,37727,205148,174939
1630678969020,37728,205126,174881
1630678969030,37729,205035,174840
1630678969040,37738,205058,174868
1630678969050,37754,205037,174864
1630678969060,37782,205051,174873
1630678969070,37808,205062,174882
1630678969080,37808,205054,174867
1630678969090,37825,205063,174874
1630678969100,37856,205171,175022
1630678969110,37866,205218,175068
1630678969120,37872,205284,175156
1630678969130,37868,205278,175174
1630678969140,37866,205269,175185
1630678969150,37874,205287,175270
1630678969160,37880,205238,175285
1630678969170,37879,205320,175346
1630678969180,37883,205306,175403
1630678969190,37896,205284,175409
1630678969200,37900,205310,175424
1630678969210,37907,205289,175419
1630678969220,37923,205237,175436
1630678969230,37924,205323,175492
1630678969240,37931,205276,175488
1630678969250,37942,205270,175502
1630678969260,37963,205279,175587
1630678969270,37982,205379,175590
1630678969280,37985,205444,175668
1630678969290,37997,205442,175702
1630678969300,38005,205463,175693
1630678969310,38008,205552,175755
1630678969320,38010,205581,175773
1630678969330,38014,205614,175751
1630678969340,38005,205686,175803
1630678969350,38009,205706,175779
1630678969360,38015,205796,175831
1630678969370,38014,205869,175878
1630678969380,38027,205888,175888
1630678969390,38035,205997,175916
1630678969400,38038,206137,175939
1630678969410,38038,206136,175956
1630678969420,38034,206116,175940
1630678969430,38037,206203,175924
1630678969440,38052,206258,175903
1630678969450,38037,206290,175903
1630678969460,38027,206305,175876
1630678969470,38038,206328,175870
1630678969480,38048,206360,175891
1630678969490,38053,206364,175889
1630678969500,38060,206368,175879
1630678969510,38071,206372,175876
1630678969520,38077,206383,175891
1630678969530,38086,206412,175877
1630678969540,38092,206393,175904
1630678969550,38096,206394,175905
1630678969560,38106,206402,175902
1630678969570,38113,206418,175906
1630678969580,38134,206431,175906
1630678969590,38161,206439,175893
1630678969600,38164,206408,175887
1630678969610,38180,206421,175850
1630678969620,38167,206415,175831
1630678969630,38186,206434,175841
1630678969640,38201,206387,175830
1630678969650,38211,206351,175786
1630678969660,38214,206297,175760
1630678969670,38215,206276,175729
1630678969680,38220,206203,175707
1630678969690,38222,206205,175647
1630678969700,38227,206168,175631
1630678969710,38222,206159,175621
1630678969720,38224,206178,175608
1630678969730,38233,206223,175618
1630678969740,38247,206220,175657
1630678969750,38252,206246,175651
1630678969760,38272,206279,175661
1630678969770,38281,206306,175651
1630678969780,38286,206324,175633
1630678969790,38284,206350,175656
1630678969800,38299,206339,175651
1630678969810,38312,206403,175659
1630678969820,38322,206430,175713
1630678969830,38337,206443,175742
1630678969840,38345,206475,175744
1630678969850,38345,206467,175741
1630678969860,38336,206456,175737
1630678969870,38334,206437,175721
1630678969880,38316,206424,175703
1630678969890,38320,206407,175663
1630678969900,38318,206346,175623
1630678969910,38323,206350,175611
1630678969920,38331,206348,175586
1630678969930,38340,206352,175591
1630678969940,38339,206363,175564
1630678969950,38347,206331,175565
1630678969960,38352,206331,175553
1630678969970,38361,206303,175526
1630678969980,38357,206283,175479
1630678969990,38360,206266,175440
1630678970000,38371,206267,175449
1630678970010,38377,206232,175434
1630678970020,38382,206252,175420
1630678970030,38390,206266,175399
1630678970040,38403,206235,175381
1630678970050,38402,206328,175411
1630678970060,38417,206306,175403
1630678970070,38411,206270,175336
1630678970080,38438,206287,175331
1630678970090,38426,206335,175344
1630678970100,38443,206392,175367
1630678970110,38452,206378,175362
1630678970120,38466,206368,175372
1630678970130,38468,206354,175350
1630678970140,38478,206361,175323
1630678970150,38493,206342,175343
1630678970160,38494,206371,175325
1630678970170,38502,206395,175341
1630678970180,38519,206448,175334
1630678970190,38531,206412,175328
1630678970200,38545,206428,175328
1630678970210,38545,206429,175308
1630678970220,38548,206434,175314
1630678970230,38565,206442,175286
1630678970240,38569,206432,175281
1630678970250,38574,206454,175277
1630678970260,38586,206444,175260
1630678970270,38596,206456,175264
1630678970280,38609,206426,175238
1630678970290,38612,206418,175244
1630678970300,38620,206456,175212
1630678970310,38631,206415,175217
1630678970320,38643,206413,175211
1630678970330,38654,206442,175217
1630678970340,38667,206427,175192
1630678970350,38671,206418,175183
1630678970360,38676,206435,175181
1630678970370,38683,206403,175178
1630678970380,38702,206366,175120
1630678970390,38711,206379,175132
1630678970400,38727,206375,175139
1630678970410,38739,206362,175102
1630678970420,38738,206366,175107
1630678970430,38754,206386,175104
1630678970440,38761,206400,175097
1630678970450,38767,206388,175088
1630678970460,38772,206345,175036
1630678970470,38780,206355,175046
1630678970480,38788,206368,175083
1630678970490,38809,206386,175075
1630678970500,38822,206409,175095
1630678970510,38837,206473,175113
1630678970520,38861,206453,175157
1630678970530,38865,206450,175168
1630678970540,38878,206489,175180
1630678970550,38871,206468,175177
1630678970560,38877,206475,175192
1630678970570,38897,206461,175183
1630678970580,38903,206476,175175
1630678970590,38896,206482,175186
1630678970600,38916,206491,175195
1630678970610,38907,206498,175189
1630678970620,38916,206472,175183
1630678970630,38926,206490,175182
1630678970640,38920,206483,175154
1630678970650,38932,206451,175147
1630678970660,38934,206445,175133
1630678970670,38943,206416,175148
1630678970680,38940,206445,175127
1630678970690,38946,206393,175091
1630678970700,38960,206459,175079
1630678970710,38962,206406,175088
1630678970720,38971,206433,175087
1630678970730,38962,206457,175075
1630678970740,38988,206443,175110
1630678970750,38995,206455,175098
1630678970760,38994,206459,175088
1630678970770,39012,206495,175081
1630678970780,39010,206508,175075
1630678970790,39022,206475,175085
1630678970800,39027,206495,175084
1630678970810,39034,206498,175066
1630678970820,39044,206507,175063
1630678970830,39041,206537,175083
1630678970840,39049,206516,175075
1630678970850,39059,206504,175055
1630678970860,39063,206545,175062
1630678970870,39055,206533,175073
1630678970880,39073,206558,175040
1630678970890,39079,206529,175041
1630678970900,39091,206571,175037
1630678970910,39088,206571,175049
1630678970920,39098,206554,175055
1630678970930,39105,206578,175046
1630678970940,39109,206581,175043
1630678970950,39116,206557,175013
1630678970960,39122,206589,175044
1630678970970,39134,206558,175023
1630678970980,39128,206608,175028
1630678970990,39138,206576,175023
1630678971000,39161,206584,175007
1630678971010,39146,206584,175002
1630678971020,39148,206569,175021
1630678971030,39170,206628,175016
1630678971040,39151,206646,175004
1630678971050,39154,206665,175038
1630678971060,39181,206656,175030
1630678971070,39171,206677,175022
1630678971080,39181,206676,175033
1630678971090,39191,206698,175037
1630678971100,39191,206736,175017
1630678971110,39198,206740,175017
1630678971120,39198,206786,175041
1630678971130,39207,206796,175043
1630678971140,39216,206840,175052
1630678971150,39220,206867,175075
1630678971160,39222,206853,175081
1630678971170,39222,206848,175090
1630678971180,39227,206840,175092
1630678971190,39241,206873,175097
1630678971200,39226,206857,175087
1630678971210,39233,206899,175102
1630678971220,39225,206858,175096
1630678971230,39224,206866,175083
1630678971240,39220,206892,175059
1630678971250,39211,206848,175055
1630678971260,39213,206833,175004
1630678971270,39216,206819,175034
1630678971280,39209,206824,175006
1630678971290,39215,206835,175017
1630678971300,39212,206804,174993
1630678971310,39204,206807,175005
1630678971320,39213,206809,174986
1630678971330,39202,206818,174983
1630678971340,39195,206803,174966
1630678971350,39197,206812,174953
1630678971360,39194,206871,175001
1630678971370,39204,206841,174995
1630678971380,39195,206951,175021
1630678971390,39188,206996,175038
1630678971400,39196,207085,175071
1630678971410,39188,207157,175100
1630678971420,39180,207246,175143
1630678971430,39185,207357,175176
1630678971440,39176,207385,175138
1630678971450,39161,207421,175122
1630678971460,39140,207421,175063
1630678971470,39148,207493,175067
1630678971480,39150,207602,175102
1630678971490,39135,207652,175076
1630678971500,39112,207625,175017
1630678971510,39087,207546,174930
1630678971520,39070,207466,174851
1630678971530,39050,207369,174785
1630678971540,39028,207209,174698
1630678971550,39014,207115,174615
1630678971560,39009,206972,174543
1630678971570,38984,206806,174451
1630678971580,38967,206665,174330
1630678971590,38954,206504,174224
1630678971600,38940,206395,174150
1630678971610,38928,206284,174058
1630678971620,38918,206162,173961
1630678971630,38909,206051,173871
1630678971640,38898,205995,173864
1630678971650,38893,205918,173827
1630678971660,38895,205923,173799
1630678971670,38893,205916,173796
1630678971680,38897,205962,173840
1630678971690,38907,205939,173861
1630678971700,38922,206011,173906
1630678971710,38940,206095,173941
1630678971720,38944,206166,174003
1630678971730,38943,206221,174027
1630678971740,38954,206334,174105
1630678971750,38978,206469,174185
1630678971760,38994,206589,174291
1630678971770,39019,206724,174375
1630678971780,39029,206887,174474
1630678971790,39027,207026,174581
1630678971800,39041,207109,174631
1630678971810,39021,207139,174621
1630678971820,39010,207152,174603
1630678971830,38999,207144,174592
1630678971840,38986,207212,174595
1630678971850,38980,207257,174608
1630678971860,38982,207255,174646
1630678971870,38958,207261,174655
1630678971880,38965,207239,174630
1630678971890,38935,207161,174575
1630678971900,38906,207114,174530
1630678971910,38887,206986,174454
1630678971920,38861,206936,174385
1630678971930,38837,206790,174299
1630678971940,38814,206715,174238
1630678971950,38795,206667,174231
1630678971960,38785,206633,174182
1630678971970,38775,206613,174199
1630678971980,38765,206620,174199
1630678971990,38763,206642,174199
1630678972000,38754,206657,174198
1630678972010,38751,206667,174250
1630678972020,38760,206709,174300
1630678972030,38757,206796,174341
1630678972040,38766,206862,174384
1630678972050,38754,206917,174446
1630678972060,38763,206976,174484
1630678972070,38763,207078,174534
1630678972080,38763,207110,174589
1630678972090,38765,207199,174624
1630678972100,38780,207254,174683
1630678972110,38782,207347,174726
1630678972120,38785,207399,174784
1630678972130,38791,207518,174856
1630678972140,38796,207617,174892
1630678972150,38802,207705,174940
1630678972160,38800,207777,175004
1630678972170,38797,207816,175009
1630678972180,38811,207878,175056
1630678972190,38799,207932,175071
1630678972200,38794,207945,175069
1630678972210,38795,207996,175124
1630678972220,38811,208035,175115
1630678972230,38787,208027,175115
1630678972240,38784,207979,175109
1630678972250,38782,207954,175068
1630678972260,38774,207948,175057
1630678972270,38758,207925,175064
1630678972280,38763,207899,175026
1630678972290,38761,207888,175001
1630678972300,38747,207881,174988
1630678972310,38744,207858,175020
1630678972320,38737,207884,174987
1630678972330,38748,207836,174959
1630678972340,38745,207848,174944
1630678972350,38750,207860,174968
1630678972360,38746,207901,174991
1630678972370,38741,207932,175034
1630678972380,38744,207932,175095
1630678972390,38747,208024,175139
1630678972400,38743,208051,175172
1630678972410,38721,208072,175187
1630678972420,38705,208050,175204
1630678972430,38682,208080,175211
1630678972440,38672,208080,175252
1630678972450,38645,208092,175281
1630678972460,38621,208068,175270
1630678972470,38598,208108,175278
1630678972480,38570,208120,175307
1630678972490,38556,208132,175323
1630678972500,38539,208132,175343
1630678972510,38511,208183,175341
1630678972520,38489,208169,175407
1630678972530,38469,208210,175411
1630678972540,38437,208244,175428
1630678972550,38416,208225,175454
1630678972560,38384,208238,175470
1630678972570,38356,208269,175473
1630678972580,38341,208257,175455
1630678972590,38309,208298,175472
1630678972600,38294,208221,175480
1630678972610,38277,208250,175482
1630678972620,38260,208239,175451
1630678972630,38234,208255,175486
1630678972640,38221,208240,175480
1630678972650,38205,208245,175471
1630678972660,38183,208215,175469
1630678972670,38150,208166,175413
1630678972680,38144,208194,175422
1630678972690,38135,208161,175431
1630678972700,38110,208160,175403
1630678972710,38103,208180,175429
1630678972720,38097,208166,175450
1630678972730,38076,208150,175430
1630678972740,38066,208134,175437
1630678972750,38055,208171,175458
1630678972760,38048,208147,175457
1630678972770,38047,208162,175467
1630678972780,38032,208153,175454
1630678972790,38025,208170,175456
1630678972800,38022,208155,175439
1630678972810,38013,208142,175448
1630678972820,38011,208132,175458
1630678972830,38017,208173,175454
1630678972840,38015,208172,175448
1630678972850,38015,208212,175464
1630678972860,37998,208224,175460
1630678972870,37988,208241,175465
1630678972880,37987,208257,175475
1630678972890,37983,208289,175474
1630678972900,37984,208283,175457
1630678972910,37975,208323,175465
1630678972920,37981,208354,175481
1630678972930,37985,208366,175476
1630678972940,37983,208361,175468
1630678972950,37991,208369,175485
1630678972960,37997,208411,175506
1630678972970,37998,208418,175466
1630678972980,38007,208392,175485
1630678972990,37999,208422,175461
1630678973000,37995,208385,175448
1630678973010,38010,208398,175429
1630678973020,38001,208392,175441
1630678973030,38004,208464,175470
1630678973040,38010,208449,175489
1630678973050,38001,208522,175518
1630678973060,37990,208543,175537
1630678973070,37970,208492,175537
1630678973080,37942,208475,175562
1630678973090,37921,208472,175565
1630678973100,37889,208444,175559
1630678973110,37867,208449,175577
1630678973120,37850,208459,175594
1630678973130,37829,208434,175593
1630678973140,37807,208451,175583
1630678973150,37791,208428,175589
1630678973160,37774,208402,175601
1630678973170,37749,208417,175612
1630678973180,37740,208389,175590
1630678973190,37720,208391,175584
1630678973200,37702,208348,175589
1630678973210,37687,208336,175584
1630678973220,37673,208328,175556
1630678973230,37655,208303,175555
1630678973240,37643,208298,175537
1630678973250,37628,208235,175542
1630678973260,37617,208257,175522
1630678973270,37614,208274,175529
1630678973280,37606,208289,175550
1630678973290,37605,208326,175567
1630678973300,37610,208295,175574
1630678973310,37590,208335,175586
1630678973320,37593,208335,175597
1630678973330,37594,208362,175600
1630678973340,37582,208388,175614
1630678973350,37591,208378,175635
1630678973360,37583,208399,175672
1630678973370,37574,208411,175651
1630678973380,37572,208409,175653
1630678973390,37568,208442,175680
1630678973400,37574,208433,175689
1630678973410,37567,208458,175691
1630678973420,37563,208482,175670
1630678973430,37555,208480,175684
1630678973440,37557,208484,175691
1630678973450,37552,208502,175690
1630678973460,37543,208545,175688
1630678973470,37547,208549,175708
1630678973480,37555,208557,175728
1630678973490,37548,208600,175708
1630678973500,37549,208584,175732
1630678973510,37550,208634,175708
1630678973520,37556,208645,175724
1630678973530,37565,208636,175735
1630678973540,37559,208666,175710
1630678973550,37562,208655,175733
1630678973560,37569,208671,175737
1630678973570,37568,208662,175730
1630678973580,37573,208640,175742
1630678973590,37573,208678,175748
1630678973600,37584,208711,175761
1630678973610,37588,208726,175749
1630678973620,37582,208689,175769
1630678973630,37597,208714,175739
1630678973640,37600,208733,175759
1630678973650,37601,208699,175745
1630678973660,37599,208747,175756
1630678973670,37606,208755,175763
1630678973680,37607,208766,175761
1630678973690,37610,208794,175784
1630678973700,37617,208791,175793
1630678973710,37631,208856,175842
1630678973720,37633,208897,175871
1630678973730,37618,208926,175899
1630678973740,37606,208916,175946
1630678973750,37587,208915,175931
1630678973760,37564,208891,175925
1630678973770,37543,208873,175934
1630678973780,37538,208853,175946
1630678973790,37501,208879,175971
1630678973800,37485,208895,175954
1630678973810,37494,208880,175978
1630678973820,37475,208833,175957
1630678973830,37461,208843,175988
1630678973840,37461,208827,175979
1630678973850,37452,208819,175976
1630678973860,37446,208845,175985
1630678973870,37434,208785,175974
1630678973880,37436,208781,175964
1630678973890,37438,208842,175975
1630678973900,37427,208787,175988
1630678973910,37424,208855,175981
1630678973920,37427,208811,175972
1630678973930,37420,208784,175946
1630678973940,37424,208795,175943
1630678973950,37437,208843,175982
1630678973960,37449,208864,175994
1630678973970,37441,208908,175992
1630678973980,37451,208876,175996
1630678973990,37453,208946,176043
1630678974000,37458,208992,176064
1630678974010,37457,209001,176044
1630678974020,37464,209027,176054
1630678974030,37473,209047,176065
1630678974040,37478,209069,176071
1630678974050,37480,209091,176073
1630678974060,37485,209044,176044
1630678974070,37482,209023,176037
1630678974080,37482,208949,176017
1630678974090,37479,208861,175977
1630678974100,37491,208781,175901
1630678974110,37482,208682,175848
1630678974120,37467,208618,175796
1630678974130,37476,208501,175753
1630678974140,37459,208374,175662
1630678974150,37467,208322,175628
1630678974160,37475,208253,175609
1630678974170,37478,208171,175583
1630678974180,37484,208089,175552
1630678974190,37507,208072,175552
1630678974200,37521,208032,175559
1630678974210,37535,207977,175546
1630678974220,37540,207968,175564
1630678974230,37555,207954,175576
1630678974240,37567,207952,175633
1630678974250,37580,207955,175658
1630678974260,37612,208027,175721
1630678974270,37625,208011,175723
1630678974280,37634,208020,175724
1630678974290,37662,207977,175712
1630678974300,37656,208025,175735
1630678974310,37675,208103,175787
1630678974320,37697,208244,175869
1630678974330,37725,208359,176009
1630678974340,37758,208477,176070
1630678974350,37772,208602,176150
1630678974360,37802,208731,176276
1630678974370,37829,208891,176407
1630678974380,37859,209058,176558
1630678974390,37876,209172,176639
1630678974400,37890,209326,176760
1630678974410,37903,209445,176878
1630678974420,37899,209531,176963
1630678974430,37908,209546,176985
1630678974440,37889,209651,177052
1630678974450,37890,209699,177126
1630678974460,37882,209785,177196
1630678974470,37887,209829,177218
1630678974480,37876,209909,177298
1630678974490,37876,210006,177350
1630678974500,37885,210087,177449
1630678974510,37891,210144,177534
1630678974520,37893,210202,177553
1630678974530,37894,210219,177576
1630678974540,37898,210274,177623
1630678974550,37904,210316,177647
1630678974560,37905,210338,177692
1630678974570,37907,210382,177711
1630678974580,37916,210392,177726
1630678974590,37935,210397,177734
1630678974600,37949,210436,177760
1630678974610,37954,210433,177752
1630678974620,37975,210483,177760
1630678974630,37972,210516,177774
1630678974640,37983,210553,177800
1630678974650,37998,210586,177818
1630678974660,37988,210595,177808
1630678974670,37987,210616,177851
1630678974680,37995,210643,177833
1630678974690,38007,210668,177865
1630678974700,38002,210675,177893
1630678974710,38003,210667,177850
1630678974720,38015,210633,177869
1630678974730,38014,210628,177834
1630678974740,38021,210614,177830
1630678974750,38023,210627,177829
1630678974760,38024,210611,177821
1630678974770,38039,210592,177802
1630678974780,38023,210593,177804
1630678974790,38048,210652,177824
1630678974800,38049,210686,177820
1630678974810,38064,210678,177811
1630678974820,38072,210711,177858
1630678974830,38091,210748,177866
1630678974840,38096,210809,177876
1630678974850,38120,210819,177916
1630678974860,38134,210836,177894
1630678974870,38141,210870,177923
1630678974880,38152,210942,177954
1630678974890,38187,210962,177994
1630678974900,38192,211025,178006
1630678974910,38215,211048,178054
1630678974920,38220,211104,178073
1630678974930,38248,211200,178078
1630678974940,38269,211226,178122
1630678974950,38295,211306,178164
1630678974960,38303,211350,178169
1630678974970,38311,211400,178178
1630678974980,38334,211389,178200
1630678974990,38354,211420,178194
1630678975000,38369,211447,178223
1630678975010,38388,211445,178179
1630678975020,38409,211457,178170
1630678975030,38422,211444,178165
1630678975040,38432,211456,178147
1630678975050,38436,211445,178132
1630678975060,38451,211521,178133
1630678975070,38466,211533,178154
1630678975080,38484,211585,178161
1630678975090,38501,211600,178156
1630678975100,38513,211669,178187
1630678975110,38536,211719,178242
1630678975120,38581,211837,178299
1630678975130,38582,211911,178384
1630678975140,38594,211956,178413
1630678975150,38602,211971,178452
1630678975160,38615,212032,178488
1630678975170,38619,212040,178484
1630678975180,38620,212079,178528
1630678975190,38633,212083,178540
1630678975200,38652,212135,178568
1630678975210,38661,212148,178603
1630678975220,38664,212166,178627
1630678975230,38686,212200,178606
1630678975240,38717,212204,178640
1630678975250,38719,212239,178661
1630678975260,38720,212234,178713
1630678975270,38745,212291,178723
1630678975280,38748,212293,178716
1630678975290,38757,212345,178732
1630678975300,38759,212339,178731
1630678975310,38767,212351,178760
1630678975320,38773,212384,178741
1630678975330,38784,212396,178739
1630678975340,38792,212419,178710
1630678975350,38806,212403,178751
1630678975360,38825,212462,178774
1630678975370,38849,212471,178807
1630678975380,38864,212561,178829
1630678975390,38881,212545,178830
1630678975400,38892,212571,178849
1630678975410,38920,212621,178865
1630678975420,38919,212637,178879
1630678975430,38934,212643,178925
1630678975440,38955,212670,178928
1630678975450,38976,212732,178952
1630678975460,38991,212725,178949
1630678975470,39005,212721,178963
1630678975480,39013,212735,178973
1630678975490,39032,212765,178987
1630678975500,39049,212747,179005
1630678975510,39059,212774,178982
1630678975520,39078,212752,178993
1630678975530,39092,212756,178995
1630678975540,39098,212776,178999
1630678975550,39100,212769,178982
1630678975560,39108,212763,178969
1630678975570,39126,212758,178974
1630678975580,39130,212794,178988
1630678975590,39141,212796,178975
1630678975600,39145,212822,179013
1630678975610,39149,212850,178988
1630678975620,39154,212822,178979
1630678975630,39159,212816,178978
1630678975640,39170,212880,178976
1630678975650,39188,212900,179010
1630678975660,39198,212901,178978
1630678975670,39207,212923,178994
1630678975680,39229,212923,179016
1630678975690,39241,212972,179042
1630678975700,39262,212985,179024
1630678975710,39278,212990,179056
1630678975720,39296,213043,179110
1630678975730,39314,213082,179098
1630678975740,39324,213110,179122
1630678975750,39335,213113,179123
1630678975760,39356,213174,179136
1630678975770,39367,213211,179152
1630678975780,39370,213254,179143
1630678975790,39381,213253,179174
1630678975800,39397,213273,179172
1630678975810,39408,213282,179172
1630678975820,39418,213297,179139
1630678975830,39432,213293,179143
1630678975840,39433,213297,179139
1630678975850,39442,213255,179130
1630678975860,39447,213309,179138
1630678975870,39463,213309,179148
1630678975880,39483,213315,179149
1630678975890,39498,213329,179139
1630678975900,39508,213336,179159
1630678975910,39513,213332,179123
1630678975920,39517,213327,179130
1630678975930,39531,213336,179100
1630678975940,39542,213324,179101
1630678975950,39560,213339,179102
1630678975960,39583,213393,179163
1630678975970,39601,213423,179201
1630678975980,39620,213471,179257
1630678975990,39632,213522,179303
1630678976000,39629,213512,179321
1630678976010,39635,213506,179325
1630678976020,39630,213527,179306
1630678976030,39631,213545,179326
1630678976040,39637,213528,179348
1630678976050,39637,213581,179380
1630678976060,39648,213582,179385
1630678976070,39643,213584,179416
1630678976080,39657,213646,179421
1630678976090,39658,213635,179451
1630678976100,39664,213695,179498
1630678976110,39676,213732,179526
1630678976120,39677,213726,179555
1630678976130,39688,213737,179557
1630678976140,39684,213708,179552
1630678976150,39702,213711,179526
1630678976160,39718,213661,179534
1630678976170,39725,213685,179535
1630678976180,39740,213658,179503
1630678976190,39735,213623,179477
1630678976200,39731,213625,179482
1630678976210,39748,213673,179497
1630678976220,39754,213730,179525
1630678976230,39762,213742,179525
1630678976240,39753,213802,179589
1630678976250,39741,213631,179529
1630678976260,39738,213503,179396
1630678976270,39753,213587,179357
1630678976280,39761,213681,179447
1630678976290,39743,213667,179450
1630678976300,39735,213585,179358
1630678976310,39727,213557,179314
1630678976320,39723,213542,179291
1630678976330,39711,213522,179273
1630678976340,39699,213541,179308
1630678976350,39677,213508,179303
1630678976360,39668,213548,179309
1630678976370,39664,213600,179334
1630678976380,39659,213666,179355
1630678976390,39646,213675,179324
1630678976400,39636,213636,179307
1630678976410,39615,213641,179299
1630678976420,39614,213659,179295
1630678976430,39589,213700,179321
1630678976440,39594,213786,179356
1630678976450,39585,213753,179368
1630678976460,39579,213792,179354
1630678976470,39584,213814,179368
1630678976480,39566,213717,179312
1630678976490,39570,213690,179275
1630678976500,39573,213726,179263
1630678976510,39583,213763,179266
1630678976520,39590,213802,179301
1630678976530,39567,213657,179188
1630678976540,39573,213718,179193
1630678976550,39573,213783,179238
1630678976560,39576,213684,179191
1630678976570,39584,213697,179204
1630678976580,39578,213742,179189
1630678976590,39569,213744,179204
1630678976600,39578,213786,179185
1630678976610,39588,213766,179165
1630678976620,39591,213735,179151
1630678976630,39588,213719,179150
1630678976640,39596,213717,179173
1630678976650,39603,213712,179162
1630678976660,39611,213751,179171
1630678976670,39634,213720,179146
1630678976680,39640,213705,179129
1630678976690,39654,213723,179167
1630678976700,39682,213701,179162
1630678976710,39693,213734,179181
1630678976720,39710,213747,179195
1630678976730,39737,213755,179175
1630678976740,39754,213708,179143
1630678976750,39786,213728,179176
1630678976760,39791,213707,179163
1630678976770,39802,213707,179152
1630678976780,39811,213663,179148
1630678976790,39812,213581,179109
1630678976800,39824,213510,179061
1630678976810,39822,213432,179037
1630678976820,39818,213363,178981
1630678976830,39818,213276,178957
1630678976840,39812,213202,178888
1630678976850,39811,213094,178853
1630678976860,39795,212976,178781
1630678976870,39786,212881,178730
1630678976880,39790,212779,178660
1630678976890,39789,212713,178636
1630678976900,39789,212729,178621
1630678976910,39778,212687,178625
1630678976920,39743,212552,178528
1630678976930,39739,212584,178499
1630678976940,39727,212618,178522
1630678976950,39711,212624,178488
1630678976960,39683,212619,178483
1630678976970,39670,212630,178433
1630678976980,39648,212580,178387
1630678976990,39624,212582,178365
1630678977000,39615,212508,178313
1630678977010,39592,212465,178244
1630678977020,39568,212299,178145
1630678977030,39561,212222,178093
1630678977040,39534,212162,178008
1630678977050,39518,212054,177907
1630678977060,39507,211898,177835
1630678977070,39472,211833,177736
1630678977080,39465,211738,177707
1630678977090,39451,211662,177627
1630678977100,39445,211585,177607
1630678977110,39434,211543,177568
1630678977120,39423,211483,177551
1630678977130,39431,211447,177512
1630678977140,39426,211409,177484
1630678977150,39443,211484,177535
1630678977160,39431,211483,177559
1630678977170,39418,211407,177546
1630678977180,39424,211414,177572
1630678977190,39421,211463,177603
1630678977200,39429,211444,177623
1630678977210,39430,211439,177637
1630678977220,39415,211489,177654
1630678977230,39408,211453,177625
1630678977240,39404,211453,177621
1630678977250,39395,211468,177635
1630678977260,39382,211488,177617
1630678977270,39376,211479,177642
1630678977280,39381,211501,177628
1630678977290,39391,211508,177660
1630678977300,39394,211537,177658
1630678977310,39396,211560,177679
1630678977320,39407,211577,177691
1630678977330,39404,211607,177711
1630678977340,39418,211625,177743
1630678977350,39415,211726,177740
1630678977360,39437,211697,177760
1630678977370,39448,211739,177764
1630678977380,39444,211738,177729
1630678977390,39462,211761,177744
1630678977400,39456,211740,177783
1630678977410,39478,211755,177772
1630678977420,39474,211737,177761
1630678977430,39483,211729,177737
1630678977440,39476,211718,177722
1630678977450,39467,211685,177700
1630678977460,39470,211611,177668
1630678977470,39469,211583,177679
1630678977480,39473,211551,177665
1630678977490,39472,211569,177690
1630678977500,39477,211598,177704
1630678977510,39495,211667,177767
1630678977520,39495,211565,177709
1630678977530,39491,211618,177794
1630678977540,39501,211710,177881
1630678977550,39488,211650,177857
1630678977560,39454,211513,177829
1630678977570,39430,211575,177835
1630678977580,39401,211495,177807
1630678977590,39369,211440,177777
1630678977600,39343,211387,177745
1630678977610,39311,211326,177713
1630678977620,39272,211280,177688
1630678977630,39241,211271,177661
1630678977640,39207,211165,177634
1630678977650,39183,211096,177614
1630678977660,39167,211036,177568
1630678977670,39144,210989,177579
1630678977680,39127,210970,177586
1630678977690,39103,210922,177619
1630678977700,39092,210881,177617
1630678977710,39062,210829,177598
1630678977720,39050,210726,177545
1630678977730,39025,210690,177531
1630678977740,38992,210577,177484
1630678977750,38967,210492,177433
1630678977760,38949,210428,177410
1630678977770,38918,210318,177379
1630678977780,38903,210278,177327
1630678977790,38881,210210,177321
1630678977800,38848,210173,177282
1630678977810,38836,210169,177285
1630678977820,38815,210087,177253
1630678977830,38798,209997,177204
1630678977840,38778,209910,177169
1630678977850,38760,209869,177131
1630678977860,38748,209765,177102
1630678977870,38736,209771,177102
1630678977880,38734,209727,177107
1630678977890,38719,209703,177152
1630678977900,38713,209676,177141
1630678977910,38704,209647,177121
1630678977920,38682,209568,177125
1630678977930,38672,209516,177118
1630678977940,38661,209484,177061
1630678977950,38642,209438,177061
1630678977960,38631,209421,177011
1630678977970,38613,209349,176973
1630678977980,38602,209289,176949
1630678977990,38588,209224,176891
1630678978000,38584,209187,176868
1630678978010,38573,209142,176805
1630678978020,38551,209132,176767
1630678978030,38551,209072,176730
1630678978040,38562,209044,176690
1630678978050,38547,208991,176704
1630678978060,38551,209017,176675
1630678978070,38544,208999,176657
1630678978080,38544,208950,176667
1630678978090,38543,208991,176646
1630678978100,38550,208980,176636
1630678978110,38548,208946,176633
1630678978120,38545,208997,176628
1630678978130,38550,208993,176626
1630678978140,38543,208973,176628
1630678978150,38542,208980,176613
1630678978160,38543,208983,176604
1630678978170,38535,208995,176596
1630678978180,38543,208970,176596
1630678978190,38539,209021,176604
1630678978200,38554,209036,176590
1630678978210,38552,209031,176591
1630678978220,38544,209065,176577
1630678978230,38542,209034,176580
1630678978240,38539,209074,176582
1630678978250,38544,209097,176561
1630678978260,38540,209085,176561
1630678978270,38542,209114,176529
1630678978280,38547,209109,176567
1630678978290,38536,209161,176590
1630678978300,38547,209206,176630
1630678978310,38537,209236,176667
1630678978320,38516,209208,176659
1630678978330,38504,209261,176691
1630678978340,38482,209181,176685
1630678978350,38450,209204,176691
1630678978360,38416,209186,176704
1630678978370,38418,209211,176686
1630678978380,38392,209195,176693
1630678978390,38374,209184,176704
1630678978400,38359,209209,176726
1630678978410,38340,209150,176726
1630678978420,38326,209183,176700
1630678978430,38308,209142,176677
1630678978440,38289,209134,176689
1630678978450,38273,209136,176715
1630678978460,38267,209084,176688
1630678978470,38250,209087,176698
1630678978480,38241,209098,176680
1630678978490,38221,209096,176684
1630678978500,38212,209069,176687
1630678978510,38188,209084,176683
1630678978520,38193,209116,176674
1630678978530,38168,209094,176703
1630678978540,38179,209136,176696
1630678978550,38166,209177,176710
1630678978560,38165,209239,176749
1630678978570,38162,209315,176782
1630678978580,38152,209377,176820
1630678978590,38160,209445,176848
1630678978600,38163,209499,176860
1630678978610,38158,209495,176870
1630678978620,38158,209503,176846
1630678978630,38158,209506,176848
1630678978640,38169,209557,176870
1630678978650,38182,209561,176925
1630678978660,38192,209594,176983
1630678978670,38208,209640,176992
1630678978680,38204,209635,176979
1630678978690,38192,209631,176987
1630678978700,38184,209613,176928
1630678978710,38192,209536,176930
1630678978720,38199,209478,176926
1630678978730,38206,209481,176908
1630678978740,38215,209455,176900
1630678978750,38212,209440,176926
1630678978760,38203,209419,176890
1630678978770,38215,209423,176899
1630678978780,38218,209361,176877
1630678978790,38221,209376,176887
1630678978800,38232,209377,176874
1630678978810,38244,209417,176917
1630678978820,38259,209446,176966
1630678978830,38263,209480,177010
1630678978840,38273,209533,177014
1630678978850,38275,209579,177044
1630678978860,38280,209628,177088
1630678978870,38295,209712,177150
1630678978880,38308,209779,177167
1630678978890,38326,209861,177268
1630678978900,38338,209945,177325
1630678978910,38350,210045,177374
1630678978920,38356,210138,177396
1630678978930,38369,210181,177445
1630678978940,38381,210288,177484
1630678978950,38392,210414,177539
1630678978960,38410,210508,177616
1630678978970,38440,210611,177690
1630678978980,38448,210686,177700
1630678978990,38451,210730,177737
1630678979000,38464,210807,177787
1630678979010,38474,210843,177808
1630678979020,38496,210884,177826
1630678979030,38511,210904,177843
1630678979040,38532,210981,177879
1630678979050,38554,211023,177927
1630678979060,38570,211070,177993
1630678979070,38586,211097,178042
1630678979080,38579,211105,178069
1630678979090,38578,211098,178100
1630678979100,38567,211062,178109
1630678979110,38557,211041,178142
1630678979120,38559,211075,178135
1630678979130,38556,211053,178153
1630678979140,38561,211035,178175
1630678979150,38561,211050,178181
1630678979160,38555,211047,178230
1630678979170,38557,211055,178232
1630678979180,38551,211089,178251
1630678979190,38568,211072,178292
1630678979200,38568,211087,178295
1630678979210,38578,211062,178300
1630678979220,38581,211079,178271
1630678979230,38592,211078,178322
1630678979240,38588,211081,178319
1630678979250,38608,211071,178304
1630678979260,38614,211094,178247
1630678979270,38620,211042,178234
1630678979280,38631,211015,178225
1630678979290,38659,210991,178204
1630678979300,38674,210882,178067
1630678979310,38653,210610,177836
1630678979320,38644,210253,177548
1630678979330,38621,209914,177258
1630678979340,38588,209506,176940
1630678979350,38554,209068,176640
1630678979360,38514,208607,176269
1630678979370,38477,208101,175881
1630678979380,38426,207563,175503
1630678979390,38388,207056,175111
1630678979400,38332,206515,174746
1630678979410,38296,206033,174437
1630678979420,38264,205660,174171
1630678979430,38228,205181,173921
1630678979440,38192,204859,173662
1630678979450,38174,204567,173489
1630678979460,38155,204274,173302
1630678979470,38123,204014,173170
1630678979480,38125,203799,173031
1630678979490,38101,203601,172935
1630678979500,38117,203409,172819
1630678979510,38102,203250,172725
1630678979520,38103,203126,172656
1630678979530,38095,202930,172595
1630678979540,38109,202834,172534
1630678979550,38109,202761,172482
1630678979560,38115,202678,172464
1630678979570,38124,202646,172446
1630678979580,38119,202733,172457
1630678979590,38123,202657,172419
1630678979600,38132,202576,172390
1630678979610,38124,202518,172369
1630678979620,38124,202472,172350
1630678979630,38125,202377,172292
1630678979640,38115,202324,172268
1630678979650,38123,202256,172218
1630678979660,38134,202126,172115
1630678979670,38137,202109,172098
1630678979680,38130,202053,172046
1630678979690,38134,202021,172050
1630678979700,38147,202070,172077
1630678979710,38172,202194,172105
1630678979720,38195,202366,172247
1630678979730,38196,202383,172215
1630678979740,38223,202609,172429
1630678979750,38244,202762,172530
1630678979760,38238,202794,172562
1630678979770,38229,202804,172602
1630678979780,38238,202838,172656
1630678979790,38214,202839,172660
1630678979800,38203,202856,172729
1630678979810,38212,202855,172716
1630678979820,38196,202864,172774
1630678979830,38195,202852,172761
1630678979840,38200,202884,172760
1630678979850,38188,202894,172819
1630678979860,38187,202869,172798
1630678979870,38199,202870,172802
1630678979880,38193,202886,172845
1630678979890,38192,202822,172839
1630678979900,38191,202839,172816
1630678979910,38195,202851,172807
1630678979920,38190,202823,172810
1630678979930,38195,202817,172817
1630678979940,38209,202892,172794
1630678979950,38204,202838,172831
1630678979960,38189,202841,172788
1630678979970,38219,202837,172792
1630678979980,38214,202828,172810
1630678979990,38236,202873,172815
1630678980000,38243,202883,172822
1630678980010,38256,202884,172817
1630678980020,38267,202872,172795
1630678980030,38269,202831,172810
1630678980040,38296,202838,172835
1630678980050,38304,202831,172806
1630678980060,38317,202843,172830
1630678980070,38320,202886,172841
1630678980080,38343,202887,172854
1630678980090,38347,202902,172850
1630678980100,38359,202884,172852
1630678980110,38363,202907,172862
1630678980120,38382,202932,172854
1630678980130,38392,202929,172844
1630678980140,38409,202967,172866
1630678980150,38409,202936,172852
1630678980160,38433,202955,172867
1630678980170,38437,202945,172844
1630678980180,38456,202939,172886
1630678980190,38467,202995,172869
1630678980200,38482,202994,172904
1630678980210,38504,203027,172903
1630678980220,38520,203036,172907
1630678980230,38520,203018,172930
1630678980240,38542,203073,172936
1630678980250,38554,203079,172944
1630678980260,38566,203133,172983
1630678980270,38588,203167,172993
1630678980280,38596,203134,172977
1630678980290,38604,203149,173007
1630678980300,38625,203197,173037
1630678980310,38644,203200,173032
1630678980320,38659,203203,173016
1630678980330,38678,203237,173024
1630678980340,38692,203251,173051
1630678980350,38708,203225,173021
1630678980360,38718,203278,173074
1630678980370,38742,203295,173051
1630678980380,38757,203358,173082
1630678980390,38765,203319,173091
1630678980400,38784,203401,173114
1630678980410,38807,203435,173156
1630678980420,38826,203487,173225
1630678980430,38838,203492,173241
1630678980440,38839,203480,173274
1630678980450,38835,203464,173243
1630678980460,38827,203454,173245
1630678980470,38834,203433,173267
1630678980480,38835,203432,173254
1630678980490,38842,203396,173282
1630678980500,38840,203385,173251
1630678980510,38850,203387,173253
1630678980520,38858,203392,173271
1630678980530,38865,203384,173269
1630678980540,38872,203376,173242
1630678980550,38878,203386,173253
1630678980560,38875,203362,173275
1630678980570,38885,203319,173258
1630678980580,38894,203361,173274
1630678980590,38893,203376,173286
1630678980600,38907,203356,173266
1630678980610,38906,203363,173263
1630678980620,38925,203322,173260
1630678980630,38929,203305,173243
1630678980640,38942,203333,173261
1630678980650,38959,203274,173208
1630678980660,38946,203297,173229
1630678980670,38949,203242,173184
1630678980680,38971,203253,173195
1630678980690,38978,203234,173181
1630678980700,38966,203229,173146
1630678980710,38976,203234,173131
1630678980720,38982,203192,173133
1630678980730,38981,203193,173128
1630678980740,38995,203165,173118
1630678980750,38997,203160,173108
1630678980760,39005,203125,173058
1630678980770,39007,203049,172989
1630678980780,38992,202968,172935
1630678980790,38991,202868,172863
1630678980800,38991,202676,172741
1630678980810,38995,202504,172616
1630678980820,38984,202308,172472
1630678980830,38968,202017,172269
1630678980840,38947,201769,172041
1630678980850,38928,201423,171773
1630678980860,38893,201012,171441
1630678980870,38856,200535,171077
1630678980880,38810,200069,170697
1630678980890,38761,199581,170307
1630678980900,38718,199088,169898
1630678980910,38667,198594,169518
1630678980920,38619,198064,169108
1630678980930,38572,197501,168672
1630678980940,38517,196932,168252
1630678980950,38480,196384,167819
1630678980960,38411,195785,167361
1630678980970,38351,195131,166884
1630678980980,38294,194513,166379
1630678980990,38215,193822,165896
1630678981000,38160,193120,165317
1630678981010,38070,192312,164712
1630678981020,37987,191497,164107
1630678981030,37888,190606,163415
1630678981040,37780,189684,162698
1630678981050,37666,188759,161984
1630678981060,37558,187782,161298
1630678981070,37440,186828,160548
1630678981080,37338,185928,159879
1630678981090,37245,184985,159239
1630678981100,37124,184084,158493
1630678981110,37008,183159,157852
1630678981120,36890,182219,157175
1630678981130,36786,181305,156524
1630678981140,36584,180547,155762
1630678981150,37098,183497,157941
1630678981160,37041,183072,157768
1630678981170,36992,182728,157521
1630678981180,36935,182334,157230
1630678981190,36871,181901,156895
1630678981200,36814,181459,156531
1630678981210,36746,180959,156153
1630678981220,36663,180440,155792
1630678981230,36609,179931,155401
1630678981240,36533,179390,155192
1630678981250,36459,178886,154791
1630678981260,36378,178384,154408
1630678981270,36319,177906,154059
1630678981280,36261,177387,153662
1630678981290,36208,176951,153347
1630678981300,36145,176477,153003
1630678981310,36092,176016,152673
1630678981320,36032,175553,152308
1630678981330,35952,175081,151948
1630678981340,35892,174600,151586
1630678981350,35843,174182,151314
1630678981360,35857,174322,151466
1630678981370,35957,174762,151827
1630678981380,35981,174805,151885
1630678981390,35957,174662,151774
1630678981400,35934,174466,151638
1630678981410,35911,174263,151463
1630678981420,35886,174038,151313
1630678981430,35844,173739,151104
1630678981440,35801,173510,150867
1630678981450,35794,173216,150689
1630678981460,35762,172955,150511
1630678981470,35724,172712,150321
1630678981480,35688,172457,150117
1630678981490,35659,172173,149904
1630678981500,35627,171930,149690
1630678981510,35607,171704,149573
1630678981520,35596,171543,149433
1630678981530,35563,171330,149277
1630678981540,35545,171125,149156
1630678981550,35517,170906,148947
1630678981560,35494,170660,148761
1630678981570,35476,170403,148571
1630678981580,35451,170142,148439
1630678981590,35421,169971,148259
1630678981600,35381,169710,148058
1630678981610,35366,169611,147925
1630678981620,35337,169441,147817
1630678981630,35327,169307,147727
1630678981640,35311,169145,147613
1630678981650,35293,168969,147490
1630678981660,35274,168812,147372
1630678981670,35258,168683,147268
1630678981680,35242,168573,147201
1630678981690,35220,168443,147096
1630678981700,35207,168273,146976
1630678981710,35175,168098,146828
1630678981720,35152,167886,146685
1630678981730,35132,167712,146568
1630678981740,35108,167544,146418
1630678981750,35097,167432,146317
1630678981760,35094,167327,146261
1630678981770,35094,167290,146185
1630678981780,35084,167259,146198
1630678981790,35087,167234,146174
1630678981800,35085,167207,146166
1630678981810,35077,167154,146136
1630678981820,35063,167084,146097
1630678981830,35053,167000,146096
1630678981840,35043,166932,146012
1630678981850,35030,166839,145958
1630678981860,35016,166751,145889
1630678981870,35011,166658,145841
1630678981880,34997,166581,145770
1630678981890,34975,166467,145706
1630678981900,34962,166366,145625
1630678981910,34949,166242,145527
1630678981920,34936,166129,145453
1630678981930,34915,166065,145380
1630678981940,34898,166000,145342
1630678981950,34891,165901,145270
1630678981960,34878,165782,145209
1630678981970,34854,165657,145118
1630678981980,34837,165571,145036
1630678981990,34818,165411,144907
1630678982000,34800,165273,144806
1630678982010,34782,165115,144703
1630678982020,34770,164998,144604
1630678982030,34750,164830,144500
1630678982040,34736,164695,144383
1630678982050,34713,164528,144228
1630678982060,34683,164304,144096
1630678982070,34663,164195,143977
1630678982080,34652,164017,143869
1630678982090,34648,163870,143786
1630678982100,34640,163773,143700
1630678982110,34648,163687,143668
1630678982120,34661,163653,143664
1630678982130,34679,163670,143685
1630678982140,34708,163722,143750
1630678982150,34734,163796,143812
1630678982160,34769,163931,143935
1630678982170,34795,164047,144017
1630678982180,34837,164169,144078
1630678982190,34884,164346,144244
1630678982200,34942,164510,144362
1630678982210,34976,164725,144518
1630678982220,35028,164893,144652
1630678982230,35047,165038,144780
1630678982240,35094,165191,144872
1630678982250,35125,165299,144966
1630678982260,35176,165433,145041
1630678982270,35189,165499,145099
1630678982280,35210,165590,145179
1630678982290,35234,165617,145192
1630678982300,35263,165697,145224
1630678982310,35282,165722,145275
1630678982320,35302,165808,145324
1630678982330,35326,165865,145384
1630678982340,35350,165920,145422
1630678982350,35362,166005,145472
1630678982360,35382,166077,145553
1630678982370,35404,166189,145603
1630678982380,35414,166263,145675
1630678982390,35443,166377,145749
1630678982400,35470,166501,145861
1630678982410,35499,166629,145967
1630678982420,35534,166788,146091
1630678982430,35538,166908,146128
1630678982440,35555,167029,146234
1630678982450,35586,167151,146321
1630678982460,35594,167206,146370
1630678982470,35594,167225,146417
1630678982480,35596,167258,146426
1630678982490,35589,167300,146463
1630678982500,35587,167310,146476
1630678982510,35581,167313,146504
1630678982520,35576,167340,146509
1630678982530,35576,167379,146547
1630678982540,35576,167404,146564
1630678982550,35580,167432,146584
1630678982560,35564,167457,146632
1630678982570,35584,167498,146672
1630678982580,35592,167516,146702
1630678982590,35586,167534,146713
1630678982600,35587,167582,146749
1630678982610,35579,167634,146774
1630678982620,35586,167657,146821
1630678982630,35581,167693,146868
1630678982640,35584,167770,146896
1630678982650,35586,167797,146913
1630678982660,35593,167845,146950
1630678982670,35600,167896,147023
1630678982680,35600,167955,147040
1630678982690,35612,168063,147111
1630678982700,35624,168112,147162
1630678982710,35632,168186,147220
1630678982720,35648,168281,147296
1630678982730,35643,168288,147316
1630678982740,35647,168370,147356
1630678982750,35656,168397,147426
1630678982760,35648,168452,147428
1630678982770,35648,168482,147477
1630678982780,35655,168535,147520
1630678982790,35665,168623,147562
1630678982800,35664,168691,147633
1630678982810,35680,168806,147719
1630678982820,35682,168882,147801
1630678982830,35701,169009,147887
1630678982840,35717,169073,147965
1630678982850,35726,169148,147979
1630678982860,35717,169150,147990
1630678982870,35719,169137,148004
1630678982880,35722,169170,147993
1630678982890,35737,169181,147999
1630678982900,35723,169200,148012
1630678982910,35726,169218,148030
1630678982920,35718,169173,148000
1630678982930,35708,169158,147966
1630678982940,35690,169136,147948
1630678982950,35682,169089,147900
1630678982960,35668,169008,147808
1630678982970,35648,168908,147721
1630678982980,35633,168869,147667
1630678982990,35631,168801,147625
1630678983000,35623,168746,147584
1630678983010,35615,168742,147602
1630678983020,35604,168807,147619
1630678983030,35595,168784,147602
1630678983040,35602,168734,147593
1630678983050,35592,168807,147628
1630678983060,35599,168821,147664
1630678983070,35603,168942,147744
1630678983080,35632,169054,147839
1630678983090,35642,169141,147917
1630678983100,35646,169245,148005
1630678983110,35667,169308,148066
1630678983120,35682,169374,148126
1630678983130,35684,169476,148224
1630678983140,35699,169574,148294
1630678983150,35704,169614,148365
1630678983160,35702,169643,148422
1630678983170,35690,169656,148439
1630678983180,35685,169678,148476
1630678983190,35687,169721,148534
1630678983200,35688,169803,148614
1630678983210,35680,169842,148682
1630678983220,35689,169881,148732
1630678983230,35700,169921,148796
1630678983240,35678,169979,148817
1630678983250,35677,169975,148831
1630678983260,35670,169988,148870
1630678983270,35662,170011,148854
1630678983280,35660,170002,148897
1630678983290,35650,170020,148924
1630678983300,35641,170015,148953
1630678983310,35632,170075,148965
1630678983320,35631,170115,148998
1630678983330,35628,170145,149034
1630678983340,35628,170218,149092
1630678983350,35623,170242,149109
1630678983360,35645,170279,149175
1630678983370,35640,170362,149224
1630678983380,35635,170396,149247
1630678983390,35645,170474,149297
1630678983400,35633,170490,149326
1630678983410,35636,170492,149319
1630678983420,35637,170540,149356
1630678983430,35646,170561,149359
1630678983440,35652,170608,149416
1630678983450,35654,170614,149435
1630678983460,35648,170632,149456
1630678983470,35651,170699,149488
1630678983480,35645,170725,149508
1630678983490,35656,170774,149542
1630678983500,35661,170849,149605
1630678983510,35675,170937,149648
1630678983520,35683,171013,149733
1630678983530,35705,171098,149781
1630678983540,35717,171169,149864
1630678983550,35714,171202,149920
1630678983560,35730,171306,149996
1630678983570,35735,171405,150052
1630678983580,35749,171468,150103
1630678983590,35752,171545,150156
1630678983600,35762,171588,150200
1630678983610,35778,171644,150244
1630678983620,35787,171754,150305
1630678983630,35795,171815,150326
1630678983640,35801,171892,150391
1630678983650,35812,171928,150440
1630678983660,35825,172007,150486
1630678983670,35824,172055,150535
1630678983680,35829,172143,150586
1630678983690,35837,172155,150613
1630678983700,35852,172175,150634
1630678983710,35867,172236,150658
1630678983720,35877,172320,150728
1630678983730,35877,172383,150767
1630678983740,35890,172457,150843
1630678983750,35904,172561,150884
1630678983760,35916,172630,150995
1630678983770,35933,172758,151032
1630678983780,35945,172792,151108
1630678983790,35952,172865,151137
1630678983800,35967,172928,151181
1630678983810,35973,172967,151219
1630678983820,35987,173044,151281
1630678983830,35995,173116,151325
1630678983840,36009,173197,151382
1630678983850,36029,173314,151442
1630678983860,36032,173378,151518
1630678983870,36054,173488,151580
1630678983880,36052,173516,151668
1630678983890,36068,173629,151686
1630678983900,36091,173727,151774
1630678983910,36108,173830,151870
1630678983920,36123,173933,151939
1630678983930,36139,174033,152029
1630678983940,36152,174130,152105
1630678983950,36172,174211,152211
1630678983960,36170,174327,152303
1630678983970,36174,174384,152385
1630678983980,36180,174504,152482
1630678983990,36184,174573,152567
1630678984000,36205,174726,152644
1630678984010,36200,174820,152754
1630678984020,36208,174907,152853
1630678984030,36214,175037,152945
1630678984040,36226,175114,153020
1630678984050,36223,175171,153101
1630678984060,36231,175269,153149
1630678984070,36234,175365,153252
1630678984080,36243,175468,153351
1630678984090,36255,175621,153451
1630678984100,36263,175738,153580
1630678984110,36269,175848,153653
1630678984120,36276,175929,153737
1630678984130,36275,175993,153784
1630678984140,36281,176118,153888
1630678984150,36298,176241,153984
1630678984160,36317,176369,154086
1630678984170,36324,176521,154196
1630678984180,36345,176619,154280
1630678984190,36365,176799,154403
1630678984200,36371,176906,154498
1630678984210,36380,177066,154612
1630678984220,36388,177211,154708
1630678984230,36403,177319,154801
1630678984240,36401,177493,154896
1630678984250,36425,177650,155004
1630678984260,36434,177746,155120
1630678984270,36451,177917,155215
1630678984280,36458,178010,155290
1630678984290,36472,178126,155345
1630678984300,36477,178237,155451
1630678984310,36495,178373,155537
1630678984320,36505,178498,155641
1630678984330,36526,178657,155736
1630678984340,36554,178809,155835
1630678984350,36585,178971,155993
1630678984360,36598,179101,156077
1630678984370,36599,179246,156147
1630678984380,36616,179357,156256
1630678984390,36636,179501,156328
1630678984400,36660,179627,156433
1630678984410,36668,179732,156504
1630678984420,36697,179844,156613
1630678984430,36714,179963,156656
1630678984440,36716,180042,156761
1630678984450,36742,180200,156867
1630678984460,36760,180306,156937
1630678984470,36775,180454,157049
1630678984480,36792,180612,157133
1630678984490,36815,180753,157237
1630678984500,36836,180872,157352
1630678984510,36850,181052,157443
1630678984520,36873,181198,157567
1630678984530,36885,181302,157621
1630678984540,36897,181451,157736
1630678984550,36915,181605,157831
1630678984560,36937,181797,157956
1630678984570,36950,181950,158067
1630678984580,36980,182139,158198
1630678984590,37009,182298,158309
1630678984600,37029,182458,158458
1630678984610,37057,182640,158577
1630678984620,37081,182866,158704
1630678984630,37099,182990,158833
1630678984640,37129,183179,158937
1630678984650,37153,183346,159081
1630678984660,37184,183516,159194
1630678984670,37196,183693,159304
1630678984680,37220,183855,159424
1630678984690,37253,184058,159595
1630678984700,37274,184284,159729
1630678984710,37299,184528,159889
1630678984720,37334,184685,160011
1630678984730,37366,184876,160150
1630678984740,37387,185043,160274
1630678984750,37422,185209,160418
1630678984760,37452,185477,160568
1630678984770,37493,185681,160741
1630678984780,37541,185928,160914
1630678984790,37596,186134,161076
1630678984800,37632,186318,161237
1630678984810,37644,186513,161331
1630678984820,37678,186670,161463
1630678984830,37678,186834,161571
1630678984840,37684,186962,161691
1630678984850,37698,187165,161855
1630678984860,37722,187369,162027
1630678984870,37742,187624,162165
1630678984880,37760,187821,162319
1630678984890,37776,187985,162437
1630678984900,37789,188166,162557
1630678984910,37805,188324,162674
1630678984920,37820,188444,162800
1630678984930,37827,188641,162897
1630678984940,37838,188807,163022
1630678984950,37852,188966,163133
1630678984960,37854,189114,163217
1630678984970,37864,189283,163322
1630678984980,37869,189425,163429
1630678984990,37899,189586,163507
1630678985000,37901,189677,163592
1630678985010,37913,189863,163689
1630678985020,37942,190005,163808
1630678985030,37965,190175,163932
1630678985040,37971,190306,164036
1630678985050,37985,190436,164124
1630678985060,38002,190543,164184
1630678985070,38014,190661,164258
1630678985080,38016,190774,164326
1630678985090,38020,190846,164372
1630678985100,38020,190958,164408
1630678985110,38025,191037,164468
1630678985120,38032,191121,164532
1630678985130,38044,191252,164593
1630678985140,38061,191374,164664
1630678985150,38074,191477,164758
1630678985160,38100,191541,164810
1630678985170,38099,191655,164876
1630678985180,38137,191753,164953
1630678985190,38133,191843,165029
1630678985200,38147,191977,165069
1630678985210,38166,192112,165146
1630678985220,38187,192225,165239
1630678985230,38200,192361,165332
1630678985240,38219,192449,165404
1630678985250,38233,192580,165471
1630678985260,38241,192717,165536
1630678985270,38258,192821,165582
1630678985280,38269,192909,165670
1630678985290,38275,193060,165725
1630678985300,38289,193145,165789
1630678985310,38305,193254,165867
1630678985320,38319,193410,165943
1630678985330,38357,193539,166015
1630678985340,38370,193682,166119
1630678985350,38380,193804,166190
1630678985360,38399,193936,166282
1630678985370,38419,194080,166377
1630678985380,38436,194226,166468
1630678985390,38452,194312,166541
1630678985400,38469,194471,166611
1630678985410,38497,194545,166680
1630678985420,38516,194678,166746
1630678985430,38535,194808,166833
1630678985440,38549,194942,166934
1630678985450,38577,195077,167032
1630678985460,38590,195213,167103
1630678985470,38628,195309,167215
1630678985480,38630,195458,167289
1630678985490,38668,195547,167366
1630678985500,38676,195648,167446
1630678985510,38702,195791,167484
1630678985520,38721,195906,167563
1630678985530,38744,196037,167661
1630678985540,38770,196185,167791
1630678985550,38809,196376,167895
1630678985560,38835,196540,168033
1630678985570,38862,196707,168137
1630678985580,38890,196835,168240
1630678985590,38907,196966,168333
1630678985600,38925,197100,168421
1630678985610,38931,197184,168502
1630678985620,38946,197301,168589
1630678985630,38954,197393,168695
1630678985640,38972,197534,168767
1630678985650,38991,197662,168894
1630678985660,39010,197798,168981
1630678985670,39030,197887,169065
1630678985680,39050,197996,169164
1630678985690,39081,198097,169246
1630678985700,39105,198192,169310
1630678985710,39132,198264,169416
1630678985720,39147,198377,169506
1630678985730,39176,198496,169583
1630678985740,39198,198599,169661
1630678985750,39224,198648,169758
1630678985760,39232,198755,169844
1630678985770,39248,198871,169899
1630678985780,39251,198922,169972
1630678985790,39276,199014,170020
1630678985800,39296,199127,170111
1630678985810,39321,199217,170214
1630678985820,39367,199376,170353
1630678985830,39392,199558,170488
1630678985840,39429,199695,170614
1630678985850,39441,199814,170679
1630678985860,39453,199905,170751
1630678985870,39470,200021,170838
1630678985880,39505,200194,170959
1630678985890,39518,200387,171065
1630678985900,39548,200606,171245
1630678985910,39576,200813,171342
1630678985920,39599,201033,171500
1630678985930,39632,201230,171624
1630678985940,39660,201459,171796
1630678985950,39684,201574,171837
1630678985960,39674,201696,171867
1630678985970,39702,201884,171994
1630678985980,39728,202086,172115
1630678985990,39754,202226,172045
1630678986000,39787,202399,172151
1630678986010,39799,202484,172213
1630678986020,39827,202587,172274
1630678986030,39843,202640,172321
1630678986040,39861,202727,172347
1630678986050,39878,202733,172382
1630678986060,39904,202773,172415
1630678986070,39909,202855,172424
1630678986080,39932,202883,172483
1630678986090,39954,202898,172523
1630678986100,39978,202938,172537
1630678986110,40002,202928,172550
1630678986120,40012,202905,172569
1630678986130,40024,202877,172552
1630678986140,40037,202831,172588
1630678986150,40049,202886,172561
1630678986160,40057,202848,172581
1630678986170,40072,202809,172595
1630678986180,40091,202833,172594
1630678986190,40105,202861,172634
1630678986200,40139,202866,172692
1630678986210,40146,202907,172711
1630678986220,40162,202925,172728
1630678986230,40179,202894,172726
1630678986240,40197,202907,172715
1630678986250,40198,202923,172734
1630678986260,40219,202966,172793
1630678986270,40224,203031,172814
1630678986280,40255,203056,172862
1630678986290,40266,203060,172881
1630678986300,40268,203150,172930
1630678986310,40304,203163,172963
1630678986320,40316,203255,173023
1630678986330,40336,203327,173117
1630678986340,40356,203403,173173
1630678986350,40376,203470,173245
1630678986360,40396,203539,173306
1630678986370,40401,203575,173367
1630678986380,40412,203617,173403
1630678986390,40413,203674,173423
1630678986400,40418,203703,173480
1630678986410,40432,203710,173502
1630678986420,40436,203787,173539
1630678986430,40436,203843,173583
1630678986440,40433,203895,173659
1630678986450,40444,203965,173677
1630678986460,40450,203999,173695
1630678986470,40469,204065,173724
1630678986480,40478,204147,173795
1630678986490,40481,204174,173832
1630678986500,40488,204239,173878
1630678986510,40508,204327,173935
1630678986520,40517,204417,174002
1630678986530,40530,204530,174050
1630678986540,40539,204616,174131
1630678986550,40565,204698,174211
1630678986560,40578,204787,174244
1630678986570,40596,204872,174326
1630678986580,40616,204937,174407
1630678986590,40635,205039,174472
1630678986600,40650,205127,174527
1630678986610,40668,205219,174588
1630678986620,40693,205307,174661
1630678986630,40697,205424,174732
1630678986640,40738,205530,174802
1630678986650,40734,205597,174871
1630678986660,40756,205671,174936
1630678986670,40779,205788,175011
1630678986680,40795,205864,175059
1630678986690,40815,205933,175118
1630678986700,40823,206050,175217
1630678986710,40840,206119,175226
1630678986720,40858,206194,175298
1630678986730,40868,206261,175323
1630678986740,40880,206252,175382
1630678986750,40895,206345,175414
1630678986760,40899,206403,175446
1630678986770,40921,206405,175465
1630678986780,40931,206472,175515
1630678986790,40930,206503,175540
1630678986800,40940,206523,175551
1630678986810,40946,206547,175546
1630678986820,40949,206532,175561
1630678986830,40954,206567,175593
1630678986840,40968,206596,175593
1630678986850,40759,206645,175644
1630678986860,40782,206708,175654
1630678986870,40787,206717,175685
1630678986880,40794,206745,175722
1630678986890,40815,206825,175767
1630678986900,40840,206884,175815
1630678986910,40855,206967,175882
1630678986920,40869,207012,175931
1630678986930,40896,207098,175967
1630678986940,40897,207163,176044
1630678986950,40919,207234,176095
1630678986960,40926,207329,176153
1630678986970,40962,207408,176260
1630678986980,40982,207536,176348
1630678986990,41006,207656,176417
1630678987000,41027,207781,176524
1630678987010,41060,207920,176608
1630678987020,41079,208052,176760
1630678987030,41111,208220,176823
1630678987040,41138,208341,176928
1630678987050,41165,208522,176987
1630678987060,41186,208658,177096
1630678987070,41216,208809,177179
1630678987080,41256,208922,177281
1630678987090,41283,209113,177376
1630678987100,41314,209250,177464
1630678987110,41342,209413,177548
1630678987120,41359,209553,177667
1630678987130,41391,209702,177756
1630678987140,41406,209815,177820
1630678987150,41435,209860,177868
1630678987160,41432,209923,177871
1630678987170,41417,209878,177868
1630678987180,41404,209831,177828
1630678987190,41394,209810,177850
1630678987200,41401,209843,177919
1630678987210,41403,209868,177960
1630678987220,41394,209924,178028
1630678987230,41399,209927,178088
1630678987240,41393,209964,178160
1630678987250,41374,209948,178178
1630678987260,41374,209929,178154
1630678987270,41359,209856,178175
1630678987280,41353,209835,178162
1630678987290,41337,209796,178196
1630678987300,41329,209737,178216
1630678987310,41323,209801,178252
1630678987320,41307,209731,178253
1630678987330,41296,209762,178271
1630678987340,41297,209772,178336
1630678987350,41287,209760,178325
1630678987360,41265,209738,178360
1630678987370,41270,209769,178394
1630678987380,41262,209759,178418
1630678987390,41258,209759,178466
1630678987400,41266,209771,178451
1630678987410,41254,209744,178498
1630678987420,41243,209770,178482
1630678987430,41235,209717,178476
1630678987440,41219,209771,178500
1630678987450,41221,209746,178523
1630678987460,41209,209788,178519
1630678987470,41196,209777,178530
1630678987480,41195,209757,178520
1630678987490,41183,209747,178533
1630678987500,41187,209772,178504
1630678987510,41184,209783,178522
1630678987520,41175,209755,178484
1630678987530,41174,209796,178498
1630678987540,41170,209834,178495
1630678987550,41175,209864,178503
1630678987560,41174,209864,178507
1630678987570,41184,209909,178522
1630678987580,41185,209931,178503
1630678987590,41187,209933,178532
1630678987600,41188,209957,178525
1630678987610,41172,209947,178522
1630678987620,41204,210026,178568
1630678987630,41186,209943,178473
1630678987640,41193,210003,178519
1630678987650,41211,210081,178579
1630678987660,41213,210077,178552
1630678987670,41223,210100,178584
1630678987680,41229,210154,178598
1630678987690,41232,210143,178612
1630678987700,41245,210245,178680
1630678987710,41252,210273,178694
1630678987720,41259,210301,178724
1630678987730,41266,210349,178739
1630678987740,41285,210363,178761
1630678987750,41282,210352,178768
1630678987760,41286,210398,178795
1630678987770,41282,210492,178788
1630678987780,41283,210468,178788
1630678987790,41287,210481,178818
1630678987800,41300,210580,178830
1630678987810,41303,210575,178862
1630678987820,41299,210584,178859
1630678987830,41309,210604,178841
1630678987840,41305,210630,178872
1630678987850,41306,210621,178864
1630678987860,41318,210644,178876
1630678987870,41322,210732,178908
1630678987880,41328,210769,178934
1630678987890,41334,210824,179001
1630678987900,41325,210882,179047
1630678987910,41295,210846,179036
1630678987920,41277,210769,178959
1630678987930,41243,210707,178917
1630678987940,41225,210672,178879
1630678987950,41193,210633,178840
1630678987960,41171,210560,178822
1630678987970,41152,210454,178760
1630678987980,41137,210368,178719
1630678987990,41113,210313,178688
1630678988000,41097,210244,178616
1630678988010,41073,210150,178565
1630678988020,41054,210054,178531
1630678988030,41034,209993,178501
1630678988040,41022,209946,178471
1630678988050,41003,209857,178450
1630678988060,40996,209845,178446
1630678988070,40984,209793,178423
1630678988080,40965,209772,178440
1630678988090,40956,209779,178488
1630678988100,40960,209798,178488
1630678988110,40952,209813,178497
1630678988120,40954,209832,178518
1630678988130,40943,209843,178542
1630678988140,40956,209851,178559
1630678988150,40953,209873,178586
1630678988160,40952,209898,178623
1630678988170,40954,209893,178637
1630678988180,40940,209907,178647
1630678988190,40940,209927,178678
1630678988200,40937,209940,178740
1630678988210,40937,210010,178778
1630678988220,40932,210068,178830
1630678988230,40957,210132,178904
1630678988240,40938,210126,178964
1630678988250,40962,210213,179042
1630678988260,40969,210331,179096
1630678988270,40977,210430,179177
1630678988280,40987,210564,179321
1630678988290,41004,210701,179424
1630678988300,41019,210781,179515
1630678988310,41011,210834,179574
1630678988320,41024,210838,179594
1630678988330,41025,210819,179599
1630678988340,41019,210815,179604
1630678988350,41025,210802,179598
1630678988360,41023,210800,179600
1630678988370,41023,210779,179585
1630678988380,41023,210774,179592
1630678988390,41030,210805,179604
1630678988400,41024,210755,179571
1630678988410,41022,210706,179583
1630678988420,41021,210645,179529
1630678988430,41007,210570,179454
1630678988440,40979,210496,179404
1630678988450,40976,210413,179328
1630678988460,40967,210310,179267
1630678988470,40962,210181,179223
1630678988480,40953,210098,179141
1630678988490,40962,210009,179110
1630678988500,40960,209962,179097
1630678988510,40966,209899,179052
1630678988520,40972,209858,179040
1630678988530,40996,209875,179108
1630678988540,41051,209986,179289
1630678988550,41148,210307,179632
1630678988560,41295,210783,180125
1630678988570,41475,211386,180750
1630678988580,41626,211863,181267
1630678988590,41747,212189,181609
1630678988600,41838,212479,181935
1630678988610,41924,212748,182195
1630678988620,41981,212976,182394
1630678988630,42013,213128,182543
1630678988640,42041,213172,182661
1630678988650,42035,213142,182658
1630678988660,42013,213110,182641
1630678988670,41992,212966,182555
1630678988680,41971,212887,182510
1630678988690,41955,212863,182473
1630678988700,41927,212779,182410
1630678988710,41920,212766,182422
1630678988720,41889,212731,182381
1630678988730,41871,212674,182312
1630678988740,41838,212613,182311
1630678988750,41815,212481,182261
1630678988760,41803,212420,182196
1630678988770,41785,212360,182184
1630678988780,41777,212335,182159
1630678988790,41763,212263,182142
1630678988800,41752,212244,182156
1630678988810,41735,212229,182152
1630678988820,41723,212191,182131
1630678988830,41707,212159,182112
1630678988840,41703,212134,182072
1630678988850,41694,212135,182078
1630678988860,41690,212121,182046
1630678988870,41692,212114,182064
1630678988880,41695,212164,182076
1630678988890,41695,212182,182113
1630678988900,41675,212212,182072
1630678988910,41678,212168,182066
1630678988920,41664,212155,182067
1630678988930,41664,212151,182091
1630678988940,41662,212164,182083
1630678988950,41660,212169,182061
1630678988960,41659,212143,182078
1630678988970,41660,212153,182083
1630678988980,41669,212133,182076
1630678988990,41662,212153,182082
1630678989000,41670,212142,182049
1630678989010,41652,212100,182011
1630678989020,41645,212039,181971
1630678989030,41634,211986,181884
1630678989040,41641,211979,181912
1630678989050,41628,211893,181801
1630678989060,41631,211889,181800
1630678989070,41617,211937,181825
1630678989080,41613,211893,181814
1630678989090,41615,211879,181799
1630678989100,41625,211934,181824
1630678989110,41610,211942,181836
1630678989120,41626,211900,181823
1630678989130,41628,211907,181806
1630678989140,41633,211946,181833
1630678989150,41650,211946,181850
1630678989160,41657,212033,181894
1630678989170,41654,212083,181981
1630678989180,41670,212077,181963
1630678989190,41670,212087,181954
1630678989200,41679,212166,181999
1630678989210,41703,212249,182029
1630678989220,41695,212281,182088
1630678989230,41697,212303,182078
1630678989240,41699,212262,182038
1630678989250,41693,212243,181991
1630678989260,41703,212271,182003
1630678989270,41700,212267,181997
1630678989280,41703,212278,182029
1630678989290,41711,212327,182033
1630678989300,41707,212329,182018
1630678989310,41713,212314,182024
1630678989320,41711,212316,182022
1630678989330,41712,212312,182015
1630678989340,41717,212304,182006
1630678989350,41740,212345,182027
1630678989360,41758,212420,182066
1630678989370,41761,212499,182104
1630678989380,41775,212465,182156
1630678989390,41778,212527,182194
1630678989400,41795,212556,182198
1630678989410,41788,212502,182208
1630678989420,41767,212531,182212
1630678989430,41758,212503,182194
1630678989440,41747,212474,182175
1630678989450,41745,212510,182209
1630678989460,41728,212443,182228
1630678989470,41715,212439,182233
1630678989480,41707,212424,182196
1630678989490,41697,212409,182185
1630678989500,41665,212369,182155
1630678989510,41641,212227,182067
1630678989520,41632,212139,181986
1630678989530,41634,212076,181925
1630678989540,41611,211901,181824
1630678989550,41601,211728,181717
1630678989560,41589,211596,181593
1630678989570,41551,211384,181498
1630678989580,41526,211127,181355
1630678989590,41500,210924,181213
1630678989600,41480,210813,181231
1630678989610,41413,210519,181021
1630678989620,41368,210284,180931
1630678989630,41327,210043,180794
1630678989640,41273,209778,180599
1630678989650,41231,209490,180402
1630678989660,41191,209284,180205
1630678989670,41170,209047,180053
1630678989680,41139,208852,179851
1630678989690,41145,208608,179659
1630678989700,41145,208446,179517
1630678989710,41125,208377,179419
1630678989720,41146,208264,179316
1630678989730,41152,208225,179230
1630678989740,41163,208179,179187
1630678989750,41179,208185,179162
1630678989760,41207,208187,179165
1630678989770,41209,208193,179141
1630678989780,41248,208249,179205
1630678989790,41284,208281,179208
1630678989800,41297,208285,179238
1630678989810,41306,208357,179240
1630678989820,41311,208388,179262
1630678989830,41328,208453,179286
1630678989840,41353,208450,179296
1630678989850,41335,208475,179305
1630678989860,41366,208496,179311
1630678989870,41357,208503,179310
1630678989880,41375,208588,179322
1630678989890,41406,208647,179348
1630678989900,41417,208701,179382
1630678989910,41433,208736,179407
1630678989920,41433,208737,179423
1630678989930,41445,208795,179424
1630678989940,41473,208836,179459
1630678989950,41479,208877,179466
1630678989960,41484,208922,179500
1630678989970,41504,208911,179480
1630678989980,41510,208935,179505
1630678989990,41514,208967,179509
1630678990000,41525,209012,179517
1630678990010,41545,209032,179509
1630678990020,41560,209052,179505
1630678990030,41575,209103,179524
1630678990040,41579,209108,179549
1630678990050,41592,209143,179553
1630678990060,41611,209219,179611
1630678990070,41625,209263,179606
1630678990080,41640,209274,179614
1630678990090,41660,209316,179671
1630678990100,41677,209412,179683
1630678990110,41694,209446,179687
1630678990120,41699,209479,179724
1630678990130,41726,209551,179793
1630678990140,41733,209575,179801
1630678990150,41751,209632,179824
1630678990160,41755,209630,179867
1630678990170,41742,209647,179859
1630678990180,41725,209637,179843
1630678990190,41729,209631,179834
1630678990200,41727,209620,179871
1630678990210,41712,209616,179902
1630678990220,41712,209646,179899
1630678990230,41702,209683,179910
1630678990240,41709,209716,179925
1630678990250,41707,209684,179923
1630678990260,41713,209708,179945
1630678990270,41710,209692,179935
1630678990280,41707,209665,179925
1630678990290,41706,209684,179955
1630678990300,41708,209696,179952
1630678990310,41710,209751,179981
1630678990320,41708,209766,179993
1630678990330,41710,209825,180016
1630678990340,41722,209859,180054
1630678990350,41724,209857,180059
1630678990360,41723,209926,180043
1630678990370,41724,209920,180092
1630678990380,41732,209985,180093
1630678990390,41740,209996,180106
1630678990400,41752,209992,180117
1630678990410,41764,210053,180145
1630678990420,41766,210102,180163
1630678990430,41775,210136,180172
1630678990440,41787,210184,180177
1630678990450,41794,210170,180185
1630678990460,41792,210177,180209
1630678990470,41802,210184,180219
1630678990480,41811,210198,180227
1630678990490,41808,210226,180223
1630678990500,41831,210215,180224
1630678990510,41835,210278,180249
1630678990520,41856,210362,180271
1630678990530,41863,210371,180299
1630678990540,41867,210399,180318
1630678990550,41869,210402,180325
1630678990560,41887,210483,180343
1630678990570,41893,210513,180362
1630678990580,41907,210496,180360
1630678990590,41908,210526,180384
1630678990600,41924,210566,180404
1630678990610,41934,210547,180404
1630678990620,41935,210554,180407
1630678990630,41944,210600,180413
1630678990640,41953,210619,180411
1630678990650,41967,210655,180415
1630678990660,41971,210649,180437
1630678990670,41982,210699,180412
1630678990680,41975,210726,180428
1630678990690,42006,210735,180435
1630678990700,41999,210748,180460
1630678990710,42002,210787,180458
1630678990720,42006,210812,180444
1630678990730,42016,210798,180451
1630678990740,42017,210834,180441
1630678990750,42036,210861,180451
1630678990760,42027,210882,180451
1630678990770,42028,210896,180472
1630678990780,42036,210927,180490
1630678990790,42048,210943,180455
1630678990800,42052,210971,180488
1630678990810,42069,210934,180477
1630678990820,42084,210978,180479
1630678990830,42081,210971,180496
1630678990840,42081,211049,180498
1630678990850,42093,211084,180538
1630678990860,42111,211089,180525
1630678990870,42105,211100,180544
1630678990880,42119,211126,180559
1630678990890,42114,211104,180545
1630678990900,42105,211110,180552
1630678990910,42102,211095,180547
1630678990920,42099,211085,180545
1630678990930,42096,211111,180582
1630678990940,42089,211132,180574
1630678990950,42084,211111,180577
1630678990960,42079,211102,180581
1630678990970,42080,211091,180594
1630678990980,42070,211127,180612
1630678990990,42076,211135,180578
1630678991000,42069,211123,180601
1630678991010,42073,211102,180598
1630678991020,42077,211108,180594
1630678991030,42093,211132,180584
1630678991040,42084,211142,180630
1630678991050,42090,211124,180603
1630678991060,42089,211125,180606
1630678991070,42085,211123,180579
1630678991080,42079,211118,180572
1630678991090,42086,211134,180611
1630678991100,42092,211138,180593
1630678991110,42084,211146,180636
1630678991120,42097,211165,180603
1630678991130,42099,211149,180594
1630678991140,42097,211158,180575
1630678991150,42105,211152,180582
1630678991160,42106,211129,180592
1630678991170,42106,211143,180592
1630678991180,42109,211141,180581
1630678991190,42107,211134,180587
1630678991200,42109,211134,180588
1630678991210,42125,211139,180614
1630678991220,42113,211164,180595
1630678991230,42117,211126,180591
1630678991240,42118,211153,180587
1630678991250,42121,211133,180560
1630678991260,42127,211120,180572
1630678991270,42129,211128,180564
1630678991280,42129,211160,180584
1630678991290,42133,211112,180569
1630678991300,42160,211166,180569
1630678991310,42140,211162,180605
1630678991320,42151,211169,180607
1630678991330,42155,211199,180622
1630678991340,42167,211221,180614
1630678991350,42176,211190,180637
1630678991360,42169,211238,180645
1630678991370,42181,211260,180647
1630678991380,42180,211271,180658
1630678991390,42188,211279,180664
1630678991400,42191,211285,180666
1630678991410,42208,211300,180679
1630678991420,42214,211348,180696
1630678991430,42219,211346,180683
1630678991440,42222,211336,180722
1630678991450,42232,211391,180711
1630678991460,42243,211388,180715
1630678991470,42246,211379,180733
1630678991480,42251,211412,180744
1630678991490,42263,211412,180741
1630678991500,42272,211491,180758
1630678991510,42280,211495,180798
1630678991520,42279,211546,180794
1630678991530,42284,211551,180831
1630678991540,42295,211568,180837
1630678991550,42297,211591,180832
1630678991560,42289,211555,180831
1630678991570,42273,211547,180858
1630678991580,42277,211559,180848
1630678991590,42264,211528,180875
1630678991600,42260,211559,180865
1630678991610,42258,211556,180886
1630678991620,42240,211545,180899
1630678991630,42240,211532,180896
1630678991640,42217,211539,180842
1630678991650,42217,211454,180880
1630678991660,42206,211485,180841
1630678991670,42209,211413,180830
1630678991680,42202,211439,180823
1630678991690,42201,211438,180855
1630678991700,42206,211408,180842
1630678991710,42198,211420,180814
1630678991720,42189,211420,180844
1630678991730,42184,211403,180842
1630678991740,42177,211404,180843
1630678991750,42170,211414,180832
1630678991760,42171,211382,180844
1630678991770,42172,211430,180864
1630678991780,42174,211465,180841
1630678991790,42183,211486,180889
1630678991800,42172,211499,180886
1630678991810,42157,211486,180884
1630678991820,42161,211502,180887
1630678991830,42156,211506,180866
1630678991840,42157,211488,180903
1630678991850,42154,211491,180885
1630678991860,42152,211511,180905
1630678991870,42156,211497,180903
1630678991880,42158,211488,180900
1630678991890,42152,211512,180931
1630678991900,42152,211470,180924
1630678991910,42148,211496,180916
1630678991920,42153,211513,180921
1630678991930,42151,211497,180911
1630678991940,42153,211465,180919
1630678991950,42152,211483,180922
1630678991960,42160,211538,180935
1630678991970,42155,211536,180930
1630678991980,42153,211511,180920
1630678991990,42157,211530,180911
1630678992000,42153,211534,180936
1630678992010,42159,211527,180920
1630678992020,42158,211577,180932
1630678992030,42169,211562,180936
1630678992040,42174,211541,180948
1630678992050,42173,211583,180958
1630678992060,42184,211605,180948
1630678992070,42189,211597,180967
1630678992080,42194,211592,180979
1630678992090,42192,211605,180985
1630678992100,42199,211664,181022
1630678992110,42211,211647,181023
1630678992120,42209,211651,181011
1630678992130,42220,211657,181001
1630678992140,42239,211680,181044
1630678992150,42240,211697,181057
1630678992160,42240,211733,181068
1630678992170,42244,211793,181116
1630678992180,42253,211799,181133
1630678992190,42242,211787,181134
1630678992200,42255,211740,181120
1630678992210,42233,211753,181084
1630678992220,42211,211679,181093
1630678992230,42196,211703,181093
1630678992240,42186,211706,181102
1630678992250,42173,211740,181105
1630678992260,42168,211732,181127
1630678992270,42161,211764,181123
1630678992280,42138,211755,181114
1630678992290,42130,211732,181090
1630678992300,42126,211741,181107
1630678992310,42123,211743,181157
1630678992320,42105,211742,181118
1630678992330,42099,211717,181136
1630678992340,42090,211685,181132
1630678992350,42077,211673,181164
1630678992360,42074,211674,181167
1630678992370,42065,211658,181170
1630678992380,42056,211643,181152
1630678992390,42053,211612,181117
1630678992400,42056,211580,181125
1630678992410,42052,211562,181127
1630678992420,42053,211565,181108
1630678992430,42062,211535,181120
1630678992440,42072,211568,181098
1630678992450,42082,211590,181120
1630678992460,42070,211546,181074
1630678992470,42084,211476,181066
1630678992480,42069,211380,181026
1630678992490,42057,211287,180926
1630678992500,42028,211193,180812
1630678992510,42009,211058,180725
1630678992520,41990,210902,180629
1630678992530,41980,210780,180557
1630678992540,41951,210674,180483
1630678992550,41926,210550,180421
1630678992560,41914,210435,180310
1630678992570,41882,210308,180242
1630678992580,41863,210192,180167
1630678992590,41843,210105,180171
1630678992600,41821,210033,180048
1630678992610,41796,209892,179982
1630678992620,41779,209755,179903
1630678992630,41765,209691,179853
1630678992640,41743,209657,179845
1630678992650,41737,209539,179809
1630678992660,41725,209446,179730
1630678992670,41699,209351,179672
1630678992680,41688,209288,179629
1630678992690,41669,209220,179594
1630678992700,41669,209189,179512
1630678992710,41649,209100,179458
1630678992720,41628,208976,179416
1630678992730,41627,208980,179391
1630678992740,41616,208895,179333
1630678992750,41604,208872,179245
1630678992760,41604,208848,179213
1630678992770,41592,208859,179215
1630678992780,41605,208805,179200
1630678992790,41602,208870,179230
1630678992800,41606,208880,179239
1630678992810,41625,208957,179310
1630678992820,41644,209096,179391
1630678992830,41669,209224,179525
1630678992840,41692,209367,179659
1630678992850,41706,209561,179809
1630678992860,41719,209719,179941
1630678992870,41715,209865,180030
1630678992880,41703,209965,180115
1630678992890,41699,210121,180192
1630678992900,41700,210235,180274
1630678992910,41699,210361,180340
1630678992920,41692,210473,180468
1630678992930,41694,210558,180534
1630678992940,41696,210682,180603
1630678992950,41693,210734,180686
1630678992960,41674,210785,180708
1630678992970,41666,210799,180750
1630678992980,41652,210776,180757
1630678992990,41645,210812,180789
1630678993000,41651,210888,180846
1630678993010,41634,210967,180910
1630678993020,41630,211015,180997
1630678993030,41617,211013,181055
1630678993040,41602,211053,181064
1630678993050,41603,211105,181107
1630678993060,41588,211142,181162
1630678993070,41582,211178,181213
1630678993080,41588,211178,181233
1630678993090,41580,211217,181237
1630678993100,41560,211229,181239
1630678993110,41570,211241,181273
1630678993120,41551,211260,181305
1630678993130,41558,211303,181312
1630678993140,41554,211303,181311
1630678993150,41548,211274,181305
1630678993160,41537,211256,181302
1630678993170,41535,211291,181262
1630678993180,41532,211288,181271
1630678993190,41531,211236,181257
1630678993200,41522,211242,181226
1630678993210,41529,211276,181260
1630678993220,41524,211274,181269
1630678993230,41537,211358,181293
1630678993240,41533,211437,181310
1630678993250,41548,211488,181330
1630678993260,41553,211557,181375
1630678993270,41550,211582,181363
1630678993280,41551,211612,181369
1630678993290,41556,211674,181398
1630678993300,41561,211699,181383
1630678993310,41566,211750,181424
1630678993320,41566,211810,181437
1630678993330,41571,211835,181443
1630678993340,41571,211846,181455
1630678993350,41569,211885,181446
1630678993360,41571,211939,181462
1630678993370,41575,211991,181493
1630678993380,41585,212040,181492
1630678993390,41590,212122,181526
1630678993400,41593,212153,181563
1630678993410,41614,212194,181584
1630678993420,41612,212227,181603
1630678993430,41620,212233,181632
1630678993440,41623,212335,181664
1630678993450,41654,212356,181709
1630678993460,41643,212381,181686
1630678993470,41656,212404,181750
1630678993480,41660,212436,181756
1630678993490,41672,212498,181789
1630678993500,41679,212498,181775
1630678993510,41672,212552,181822
1630678993520,41692,212590,181872
1630678993530,41701,212645,181894
1630678993540,41699,212716,181978
1630678993550,41693,212700,181972
1630678993560,41677,212689,181933
1630678993570,41650,212707,181959
1630678993580,41648,212686,181967
1630678993590,41631,212683,181984
1630678993600,41610,212711,182010
1630678993610,41616,212716,182017
1630678993620,41608,212738,182039
1630678993630,41600,212757,182062
1630678993640,41597,212800,182081
1630678993650,41588,212808,182113
1630678993660,41589,212806,182143
1630678993670,41583,212818,182119
1630678993680,41580,212781,182140
1630678993690,41566,212843,182159
1630678993700,41566,212865,182198
1630678993710,41553,212869,182206
1630678993720,41546,212862,182205
1630678993730,41541,212878,182203
1630678993740,41542,212877,182222
1630678993750,41536,212893,182207
1630678993760,41545,212878,182205
1630678993770,41546,212906,182232
1630678993780,41540,212913,182225
1630678993790,41536,212932,182227
1630678993800,41539,212961,182244
1630678993810,41522,212975,182218
1630678993820,41519,212958,182205
1630678993830,41516,212979,182223
1630678993840,41518,212999,182242
1630678993850,41519,212978,182246
1630678993860,41523,212967,182240
1630678993870,41520,213009,182268
1630678993880,41518,213029,182271
1630678993890,41519,213025,182250
1630678993900,41503,213037,182257
1630678993910,41519,213110,182275
1630678993920,41509,213096,182290
1630678993930,41522,213105,182281
1630678993940,41518,213125,182280
1630678993950,41525,213131,182274
1630678993960,41526,213179,182288
1630678993970,41525,213170,182299
1630678993980,41533,213167,182306
1630678993990,41544,213235,182337
1630678994000,41546,213224,182313
1630678994010,41542,213274,182347
1630678994020,41552,213264,182349
1630678994030,41561,213297,182355
1630678994040,41564,213353,182375
1630678994050,41579,213374,182368
1630678994060,41591,213384,182397
1630678994070,41588,213439,182473
1630678994080,41636,213493,182497
1630678994090,41648,213583,182561
1630678994100,41658,213600,182606
1630678994110,41666,213646,182638
1630678994120,41681,213623,182656
1630678994130,41682,213607,182636
1630678994140,41708,213673,182649
1630678994150,41721,213664,182668
1630678994160,41735,213699,182681
1630678994170,41760,213762,182714
1630678994180,41783,213837,182810
1630678994190,41811,213917,182844
1630678994200,41844,214001,182875
1630678994210,41863,214109,182922
1630678994220,41890,214243,183060
1630678994230,41932,214453,183163
1630678994240,41984,214579,183298
1630678994250,42013,214627,183365
1630678994260,42011,214574,183346
1630678994270,41998,214445,183280
1630678994280,41964,214160,183135
1630678994290,41921,213846,182956
1630678994300,41890,213556,182766
1630678994310,41837,213246,182588
1630678994320,41812,212968,182429
1630678994330,41781,212728,182266
1630678994340,41764,212473,182115
1630678994350,41727,212267,181961
1630678994360,41703,212054,181802
1630678994370,41673,211797,181642
1630678994380,41641,211426,181425
1630678994390,41585,211025,181108
1630678994400,41530,210615,180815
1630678994410,41498,210217,180582
1630678994420,41468,209886,180336
1630678994430,41430,209574,180162
1630678994440,41384,209144,179879
1630678994450,41324,208721,179558
1630678994460,41275,208293,179313
1630678994470,41236,208021,179085
1630678994480,41198,207709,178892
1630678994490,41166,207414,178628
1630678994500,41133,207125,178415
1630678994510,41092,206828,178235
1630678994520,41062,206570,178014
1630678994530,41022,206221,177746
1630678994540,40973,205852,177460
1630678994550,40927,205535,177231
1630678994560,40896,205288,177022
1630678994570,40880,205083,176867
1630678994580,40842,204922,176745
1630678994590,40828,204819,176659
1630678994600,40829,204718,176604
1630678994610,40814,204664,176578
1630678994620,40817,204666,176539
1630678994630,40808,204587,176576
1630678994640,40823,204623,176590
1630678994650,40817,204613,176565
1630678994660,40814,204558,176549
1630678994670,40828,204575,176612
1630678994680,40828,204627,176612
1630678994690,40839,204655,176611
1630678994700,40853,204677,176606
1630678994710,40843,204631,176583
1630678994720,40878,204702,176658
1630678994730,40872,204697,176630
1630678994740,40878,204805,176732
1630678994750,40907,204952,176845
1630678994760,40917,205040,176890
1630678994770,40935,205118,176925
1630678994780,40950,205206,177006
1630678994790,40972,205379,177092
1630678994800,40982,205381,177160
1630678994810,41012,205479,177188
1630678994820,41022,205520,177231
1630678994830,41038,205613,177311
1630678994840,41045,205677,177320
1630678994850,41055,205722,177358
1630678994860,41049,205747,177336
1630678994870,41053,205817,177370
1630678994880,41063,205836,177364
1630678994890,41059,205874,177425
1630678994900,41073,205943,177446
1630678994910,41080,205972,177465
1630678994920,41085,205969,177461
1630678994930,41091,206022,177468
1630678994940,41100,206022,177514
1630678994950,41111,206049,177511
1630678994960,41120,206111,177523
1630678994970,41138,206123,177550
1630678994980,41141,206159,177551
1630678994990,41148,206135,177589
1630678995000,41140,206153,177605
1630678995010,41130,206108,177600
1630678995020,41121,206121,177595
1630678995030,41108,206113,177575
1630678995040,41094,206130,177608
1630678995050,41096,206196,177619
1630678995060,41093,206221,177659
1630678995070,41097,206232,177658
1630678995080,41087,206297,177684
1630678995090,41091,206291,177695
1630678995100,41086,206277,177711
1630678995110,41086,206295,177700
1630678995120,41079,206351,177718
1630678995130,41084,206359,177739
1630678995140,41081,206343,177746
1630678995150,41080,206352,177755
1630678995160,41082,206378,177790
1630678995170,41078,206393,177780
1630678995180,41077,206382,177801
1630678995190,41083,206391,177800
1630678995200,41074,206413,177783
1630678995210,41075,206405,177806
1630678995220,41073,206452,177812
1630678995230,41093,206518,177812
1630678995240,41093,206539,177864
1630678995250,41101,206560,177907
1630678995260,41113,206581,177915
1630678995270,41119,206628,177926
1630678995280,41122,206633,177950
1630678995290,41139,206666,177956
1630678995300,41134,206698,177968
1630678995310,41143,206699,177990
1630678995320,41150,206754,177990
1630678995330,41155,206772,178022
1630678995340,41173,206774,178054
1630678995350,41185,206820,178077
1630678995360,41190,206829,178038
1630678995370,41186,206833,178070
1630678995380,41201,206816,178048
1630678995390,41202,206812,178051
1630678995400,41215,206802,178063
1630678995410,41232,206762,178039
1630678995420,41228,206806,178045
1630678995430,41245,206774,178052
1630678995440,41250,206732,178016
1630678995450,41247,206709,177963
1630678995460,41256,206680,177968
1630678995470,41256,206670,177951
1630678995480,41263,206616,177935
1630678995490,41263,206618,177933
1630678995500,41264,206587,177883
1630678995510,41287,206560,177884
1630678995520,41281,206560,177858
1630678995530,41277,206555,177830
1630678995540,41298,206580,177841
1630678995550,41284,206591,177830
1630678995560,41300,206636,177844
1630678995570,41308,206661,177839
1630678995580,41314,206693,177849
1630678995590,41320,206702,177843
1630678995600,41339,206735,177849
1630678995610,41346,206743,177898
1630678995620,41363,206809,177911
1630678995630,41377,206868,177944
1630678995640,41398,206923,177988
1630678995650,41411,206993,178027
1630678995660,41419,207073,178087
1630678995670,41439,207139,178114
1630678995680,41420,207169,178162
1630678995690,41429,207173,178164
1630678995700,41452,207215,178191
1630678995710,41470,207243,178203
1630678995720,41470,207263,178233
1630678995730,41482,207318,178273
1630678995740,41483,207321,178258
1630678995750,41477,207334,178281
1630678995760,41471,207265,178249
1630678995770,41455,207245,178219
1630678995780,41429,207140,178178
1630678995790,41408,207105,178102
1630678995800,41388,207018,178063
1630678995810,41379,206989,178026
1630678995820,41360,206914,177966
1630678995830,41358,206866,177927
1630678995840,41348,206849,177894
1630678995850,41324,206860,177901
1630678995860,41335,206835,177892
1630678995870,41327,206813,177865
1630678995880,41323,206822,177896
1630678995890,41315,206831,177858
1630678995900,41323,206857,177902
1630678995910,41334,206903,177909
1630678995920,41326,206921,177880
1630678995930,41320,206896,177854
1630678995940,41311,206893,177808
1630678995950,41301,206822,177760
1630678995960,41286,206793,177699
1630678995970,41292,206742,177686
1630678995980,41286,206735,177616
1630678995990,41280,206764,177619
1630678996000,41290,206765,177606
1630678996010,41291,206742,177580
1630678996020,41290,206749,177587
1630678996030,41305,206763,177577
1630678996040,41315,206805,177581
1630678996050,41313,206857,177580
1630678996060,41311,206867,177617
1630678996070,41324,206875,177636
1630678996080,41343,206934,177674
1630678996090,41348,206995,177682
1630678996100,41362,207060,177723
1630678996110,41381,207096,177779
1630678996120,41386,207205,177828
1630678996130,41404,207261,177869
1630678996140,41418,207346,177912
1630678996150,41444,207427,177954
1630678996160,41471,207491,178007
1630678996170,41474,207578,178043
1630678996180,41499,207693,178120
1630678996190,41521,207801,178184
1630678996200,41520,207870,178235
1630678996210,41548,207970,178276
1630678996220,41548,207946,178280
1630678996230,41583,207964,178277
1630678996240,41600,208005,178284
1630678996250,41609,207990,178268
1630678996260,41621,207993,178283
1630678996270,41635,207984,178299
1630678996280,41655,208037,178303
1630678996290,41659,208032,178302
1630678996300,41674,208065,178312
1630678996310,41694,208067,178355
1630678996320,41710,208080,178367
1630678996330,41715,208056,178330
1630678996340,41716,208074,178327
1630678996350,41742,208020,178321
1630678996360,41752,208008,178272
1630678996370,41764,207892,178236
1630678996380,41766,207821,178190
1630678996390,41757,207741,178107
1630678996400,41757,207650,178031
1630678996410,41752,207591,177960
1630678996420,41753,207460,177882
1630678996430,41753,207393,177808
1630678996440,41754,207260,177757
1630678996450,41745,207194,177656
1630678996460,41740,207088,177579
1630678996470,41741,207038,177535
1630678996480,41747,206941,177467
1630678996490,41745,206901,177480
1630678996500,41760,206862,177418
1630678996510,41764,206854,177441
1630678996520,41753,206833,177451
1630678996530,41769,206846,177470
1630678996540,41772,206791,177450
1630678996550,41755,206740,177420
1630678996560,41737,206658,177385
1630678996570,41727,206590,177335
1630678996580,41705,206483,177282
1630678996590,41678,206406,177201
1630678996600,41658,206267,177166
1630678996610,41647,206204,177097
1630678996620,41619,206090,177048
1630678996630,41603,206023,176989
1630678996640,41590,205875,176925
1630678996650,41562,205770,176856
1630678996660,41533,205696,176781
1630678996670,41534,205599,176761
1630678996680,41510,205501,176704
1630678996690,41497,205453,176639
1630678996700,41471,205370,176612
1630678996710,41450,205273,176548
1630678996720,41433,205206,176501
1630678996730,41417,205104,176437
1630678996740,41406,204998,176379
1630678996750,41391,204897,176336
1630678996760,41376,204844,176283
1630678996770,41366,204754,176237
1630678996780,41357,204701,176207
1630678996790,41348,204659,176174
1630678996800,41331,204592,176128
1630678996810,41308,204500,176092
1630678996820,41308,204431,176070
1630678996830,41300,204334,176026
1630678996840,41289,204267,175969
1630678996850,41284,204139,175886
1630678996860,41261,204017,175797
1630678996870,41240,203896,175696
1630678996880,41230,203718,175624
1630678996890,41209,203543,175540
1630678996900,41173,203323,175403
1630678996910,41152,203150,175275
1630678996920,41141,203005,175247
1630678996930,41129,202859,175171
1630678996940,41120,202713,175100
1630678996950,41091,202472,174975
1630678996960,41053,202185,174786
1630678996970,41015,201895,174622
1630678996980,40983,201521,174368
1630678996990,40957,201077,174094
1630678997000,40896,200661,173808
1630678997010,40856,200240,173522
1630678997020,40815,199745,173211
1630678997030,40756,199287,172866
1630678997040,40689,198819,172543
1630678997050,40645,198429,172246
1630678997060,40589,198113,171982
1630678997070,40549,197879,171749
1630678997080,40522,197694,171634
1630678997090,40484,197470,171461
1630678997100,40433,197191,171219
1630678997110,40392,196933,171028
1630678997120,40358,196742,170902
1630678997130,40323,196545,170688
1630678997140,40298,196443,170618
1630678997150,40281,196313,170498
1630678997160,40272,196220,170405
1630678997170,40246,196137,170304
1630678997180,40225,196006,170219
1630678997190,40203,195858,170058
1630678997200,40182,195702,169926
1630678997210,40158,195481,169735
1630678997220,40126,195390,169647
1630678997230,40121,195230,169493
1630678997240,40097,194947,169250
1630678997250,40066,194732,169074
1630678997260,40033,194503,168885
1630678997270,39974,194121,168578
1630678997280,39910,193671,168220
1630678997290,39848,193191,167834
1630678997300,39776,192777,167529
1630678997310,39722,192458,167229
1630678997320,39671,192173,167054
1630678997330,39623,191961,166858
1630678997340,39566,191748,166673
1630678997350,39523,191609,166519
1630678997360,39473,191388,166372
1630678997370,39426,191152,166197
1630678997380,39373,190888,166011
1630678997390,39309,190581,165793
1630678997400,39221,190263,165555
1630678997410,39159,189966,165347
1630678997420,39066,189638,165071
1630678997430,39007,189399,164909
1630678997440,38929,189068,164689
1630678997450,38867,188830,164475
1630678997460,38805,188445,164179
1630678997470,38723,188081,163882
1630678997480,38641,187690,163548
1630678997490,38561,187261,163191
1630678997500,38480,186770,162831
1630678997510,38397,186205,162360
1630678997520,38291,185584,161878
1630678997530,38180,184963,161420
1630678997540,38061,184233,160837
1630678997550,37934,183560,160281
1630678997560,37810,182872,159613
1630678997570,37662,182105,159092
1630678997580,37559,181491,158634
1630678997590,37452,180808,158127
1630678997600,37371,180261,157698
1630678997610,37307,179790,157367
1630678997620,37246,179223,156969
1630678997630,37164,178751,156600
1630678997640,37082,178298,156277
1630678997650,37008,177813,155890
1630678997660,36950,177386,155531
1630678997670,36885,176971,155414
1630678997680,36823,176615,155120
1630678997690,36773,176272,154871
1630678997700,36721,175946,154585
1630678997710,36675,175589,154307
1630678997720,36617,175266,154030
1630678997730,36569,174947,153776
1630678997740,36558,174839,153705
1630678997750,36579,174924,153780
1630678997760,36713,175626,154380
1630678997770,36736,175709,154458
1630678997780,36717,175620,154374
1630678997790,36713,175501,154289
1630678997800,36676,175347,154144
1630678997810,36659,175180,154047
1630678997820,36631,175046,153916
1630678997830,36618,174882,153800
1630678997840,36595,174783,153676
1630678997850,36572,174600,153559
1630678997860,36554,174449,153425
1630678997870,36524,174266,153299
1630678997880,36482,174061,153123
1630678997890,36450,173838,152981
1630678997900,36449,173824,152961
1630678997910,36474,173934,153045
1630678997920,36478,173947,153084
1630678997930,36470,173891,153027
1630678997940,36452,173802,152964
1630678997950,36450,173744,152904
1630678997960,36439,173626,152811
1630678997970,36406,173458,152750
1630678997980,36379,173350,152642
1630678997990,36332,173128,152473
1630678998000,36283,172884,152302
1630678998010,36240,172698,152192
1630678998020,36210,172520,152058
1630678998030,36186,172411,151958
1630678998040,36157,172279,151875
1630678998050,36132,172118,151808
1630678998060,36105,171977,151668
1630678998070,36071,171835,151568
1630678998080,36033,171677,151453
1630678998090,36013,171542,151370
1630678998100,35979,171396,151290
1630678998110,35959,171248,151144
1630678998120,35925,171038,150944
1630678998130,35895,170839,150789
1630678998140,35859,170688,150682
1630678998150,35840,170526,150558
1630678998160,35820,170398,150428
1630678998170,35807,170242,150361
1630678998180,35782,170090,150221
1630678998190,35764,169949,150099
1630678998200,35763,169922,150042
1630678998210,35767,169905,150108
1630678998220,35792,169976,150164
1630678998230,35814,170059,150302
1630678998240,35833,170121,150362
1630678998250,35840,170123,150379
1630678998260,35836,170009,150342
1630678998270,35843,169984,150351
1630678998280,35815,169827,150228
1630678998290,35789,169613,150129
1630678998300,35756,169453,149977
1630678998310,35752,169287,149853
1630678998320,35726,169142,149697
1630678998330,35690,168960,149555
1630678998340,35661,168710,149368
1630678998350,35627,168470,149153
1630678998360,35600,168254,148997
1630678998370,35559,168050,148841
1630678998380,35536,167874,148682
1630678998390,35525,167727,148548
1630678998400,35505,167633,148456
1630678998410,35505,167562,148439
1630678998420,35528,167720,148597
1630678998430,35556,167887,148730
1630678998440,35592,167972,148827
1630678998450,35613,168079,148879
1630678998460,35627,168119,148918
1630678998470,35621,168135,148912
1630678998480,35637,168177,148968
1630678998490,35646,168205,148984
1630678998500,35649,168251,149049
1630678998510,35661,168325,149055
1630678998520,35668,168347,149095
1630678998530,35674,168379,149110
1630678998540,35680,168428,149129
1630678998550,35681,168419,149153
1630678998560,35689,168448,149166
1630678998570,35697,168487,149201
1630678998580,35709,168546,149248
1630678998590,35705,168576,149274
1630678998600,35714,168571,149264
1630678998610,35718,168607,149254
1630678998620,35719,168604,149292
1630678998630,35735,168636,149281
1630678998640,35729,168632,149282
1630678998650,35723,168634,149294
1630678998660,35729,168617,149273
1630678998670,35710,168583,149254
1630678998680,35708,168503,149238
1630678998690,35688,168471,149191
1630678998700,35676,168428,149168
1630678998710,35658,168388,149146
1630678998720,35658,168334,149133
1630678998730,35638,168304,149108
1630678998740,35632,168268,149056
1630678998750,35625,168239,149034
1630678998760,35611,168180,149013
1630678998770,35602,168168,149016
1630678998780,35609,168125,148983
1630678998790,35605,168075,148969
1630678998800,35596,168080,148964
1630678998810,35588,168071,148963
1630678998820,35586,168030,148975
1630678998830,35584,168030,148951
1630678998840,35581,168007,148943
1630678998850,35577,167991,148920
1630678998860,35578,167983,148895
1630678998870,35571,167961,148889
1630678998880,35580,167958,148897
1630678998890,35582,167943,148863
1630678998900,35573,167885,148845
1630678998910,35575,167862,148816
1630678998920,35578,167884,148822
1630678998930,35572,167882,148798
1630678998940,35579,167873,148799
1630678998950,35578,167876,148796
1630678998960,35575,167866,148798
1630678998970,35573,167905,148803
1630678998980,35581,167879,148800
1630678998990,35579,167897,148790
1630678999000,35571,167851,148763
1630678999010,35585,167874,148783
1630678999020,35595,167909,148798
1630678999030,35592,167894,148788
1630678999040,35597,167902,148797
1630678999050,35605,167968,148829
1630678999060,35615,167992,148874
1630678999070,35625,168045,148879
1630678999080,35648,168113,148968
1630678999090,35635,168161,148993
1630678999100,35673,168240,149064
1630678999110,35656,168306,149104
1630678999120,35674,168355,149144
1630678999130,35683,168430,149183
1630678999140,35688,168477,149195
1630678999150,35698,168484,149217
1630678999160,35705,168549,149255
1630678999170,35708,168506,149240
1630678999180,35710,168540,149241
1630678999190,35716,168551,149249
1630678999200,35716,168576,149247
1630678999210,35723,168613,149298
1630678999220,35735,168626,149291
1630678999230,35740,168660,149304
1630678999240,35748,168709,149331
1630678999250,35752,168681,149300
1630678999260,35745,168693,149304
1630678999270,35759,168704,149302
1630678999280,35760,168724,149320
1630678999290,35751,168724,149276
1630678999300,35749,168704,149266
1630678999310,35760,168704,149241
1630678999320,35754,168688,149232
1630678999330,35767,168712,149248
1630678999340,35774,168765,149317
1630678999350,35774,168825,149351
1630678999360,35783,168886,149416
1630678999370,35792,168937,149479
1630678999380,35797,169048,149543
1630678999390,35815,169146,149607
1630678999400,35813,169214,149717
1630678999410,35838,169291,149769
1630678999420,35858,169383,149864
1630678999430,35864,169472,149945
1630678999440,35885,169599,150021
1630678999450,35920,169714,150109
1630678999460,35931,169765,150191
1630678999470,35939,169875,150253
1630678999480,35955,169902,150295
1630678999490,35969,169960,150326
1630678999500,35974,169963,150343
1630678999510,35986,169988,150357
1630678999520,35990,170003,150354
1630678999530,35996,170003,150346
1630678999540,36001,170066,150376
1630678999550,36013,170095,150396
1630678999560,36028,170152,150413
1630678999570,36033,170210,150466
1630678999580,36059,170268,150525
1630678999590,36063,170334,150601
1630678999600,36088,170403,150638
1630678999610,36091,170446,150684
1630678999620,36105,170444,150730
1630678999630,36119,170531,150781
1630678999640,36132,170571,150783
1630678999650,36141,170612,150812
1630678999660,36140,170646,150816
1630678999670,36144,170685,150844
1630678999680,36151,170658,150837
1630678999690,36159,170712,150867
1630678999700,36173,170823,150925
1630678999710,36198,170899,151005
1630678999720,36208,170932,151042
1630678999730,36239,171060,151138
1630678999740,36251,171185,151253
1630678999750,36274,171316,151311
1630678999760,36302,171392,151387
1630678999770,36329,171496,151474
1630678999780,36334,171578,151567
1630678999790,36352,171741,151667
1630678999800,36394,171880,151771
1630678999810,36414,172005,151890
1630678999820,36438,172162,151979
1630678999830,36461,172228,152094
1630678999840,36483,172345,152178
1630678999850,36501,172506,152248
1630678999860,36524,172602,152326
1630678999870,36545,172670,152402
1630678999880,36556,172773,152467
1630678999890,36577,172862,152524
1630678999900,36614,172965,152596
1630678999910,36624,173069,152692
1630678999920,36644,173174,152782
1630678999930,36671,173315,152876
1630678999940,36695,173464,153007
1630678999950,36724,173615,153113
1630678999960,36754,173730,153215
1630678999970,36767,173856,153317
1630678999980,36794,173991,153429
1630678999990,36806,174078,153522
1630679000000,36818,174192,153631
1630679000010,36829,174314,153715
1630679000020,36847,174434,153822
1630679000030,36874,174526,153915
1630679000040,36873,174622,153980
1630679000050,36895,174725,154072
1630679000060,36911,174811,154148
1630679000070,36909,174872,154217
1630679000080,36919,174927,154281
1630679000090,36926,174957,154286
1630679000100,36931,174948,154296
1630679000110,36928,174964,154260
1630679000120,36928,174933,154257
1630679000130,36928,174922,154258
1630679000140,36941,174934,154239
1630679000150,36928,174894,154201
1630679000160,36922,174828,154161
1630679000170,36921,174753,154104
1630679000180,36916,174755,154103
1630679000190,36921,174728,154089
1630679000200,36933,174734,154088
1630679000210,36937,174808,154140
1630679000220,36952,174863,154199
1630679000230,36962,174958,154267
1630679000240,36975,174991,154333
1630679000250,36996,175066,154356
1630679000260,37010,175093,154403
1630679000270,37009,175134,154446
1630679000280,37027,175183,154466
1630679000290,37041,175232,154556
1630679000300,37061,175360,154617
1630679000310,37080,175406,154686
1630679000320,37104,175528,154773
1630679000330,37115,175634,154861
1630679000340,37140,175813,154989
1630679000350,37165,175923,155073
1630679000360,37187,176058,155182
1630679000370,37207,176205,155301
1630679000380,37245,176387,155404
1630679000390,37264,176521,155569
1630679000400,37279,176730,155653
1630679000410,37314,176891,155790
1630679000420,37380,177062,155973
1630679000430,37395,177248,156095
1630679000440,37424,177400,156208
1630679000450,37453,177611,156338
1630679000460,37475,177766,156443
1630679000470,37504,177949,156538
1630679000480,37523,178097,156642
1630679000490,37544,178248,156774
1630679000500,37559,178338,156837
1630679000510,37571,178446,156852
1630679000520,37575,178507,156875
1630679000530,37586,178552,156912
1630679000540,37605,178574,156922
1630679000550,37611,178684,156988
1630679000560,37622,178726,157042
1630679000570,37639,178784,157102
1630679000580,37661,178935,157196
1630679000590,37679,179051,157297
1630679000600,37695,179165,157401
1630679000610,37704,179287,157482
1630679000620,37713,179322,157542
1630679000630,37717,179356,157596
1630679000640,37721,179433,157647
1630679000650,37718,179461,157689
1630679000660,37722,179533,157714
1630679000670,37722,179561,157725
1630679000680,37723,179598,157796
1630679000690,37730,179645,157823
1630679000700,37732,179687,157882
1630679000710,37737,179710,157898
1630679000720,37729,179748,157890
1630679000730,37716,179726,157913
1630679000740,37746,179737,157919
1630679000750,37739,179752,157930
1630679000760,37744,179755,157911
1630679000770,37747,179765,157981
1630679000780,37755,179813,157998
1630679000790,37751,179815,157966
1630679000800,37752,179790,157964
1630679000810,37745,179739,157931
1630679000820,37751,179722,157928
1630679000830,37753,179701,157918
1630679000840,37756,179725,157939
1630679000850,37762,179761,157949
1630679000860,37775,179747,157964
1630679000870,37781,179770,157964
1630679000880,37781,179777,158004
1630679000890,37792,179798,157999
1630679000900,37799,179859,158034
1630679000910,37793,179874,158059
1630679000920,37799,179914,158092
1630679000930,37807,179910,158094
1630679000940,37812,179905,158071
1630679000950,37815,179896,158073
1630679000960,37812,179909,158067
1630679000970,37821,179903,158049
1630679000980,37824,179919,158043
1630679000990,37822,179889,158038
1630679001000,37829,179895,158025
1630679001010,37826,179857,158001
1630679001020,37829,179882,158008
1630679001030,37833,179898,158017
1630679001040,37842,179881,158010
1630679001050,37855,179916,158036
1630679001060,37862,179929,158060
1630679001070,37870,179973,158042
1630679001080,37867,179987,158082
1630679001090,37874,179993,158103
1630679001100,37882,180032,158110
1630679001110,37896,180066,158087
1630679001120,37907,180088,158117
1630679001130,37908,180100,158125
1630679001140,37921,180130,158157
1630679001150,37931,180154,158165
1630679001160,37941,180171,158164
1630679001170,37942,180222,158194
1630679001180,37944,180258,158189
1630679001190,37955,180256,158204
1630679001200,37956,180241,158192
1630679001210,37967,180290,158181
1630679001220,37971,180356,158239
1630679001230,37979,180347,158270
1630679001240,37991,180395,158276
1630679001250,37993,180383,158250
1630679001260,37984,180326,158225
